i,theta,chi2_min,chi2_avg,edge_p,edge_n,Ap_p,Ap_n,Ac_p,Ac_n
1.0,10.0,20.9525,31.8343,0.9999,-1.0003,0.35,0.35,0.15,0.15
2.0,9.0909,17.6129,28.9895,1.0005,-0.9976,0.35,0.35,0.15,0.15
3.0,8.2645,16.9304,29.4053,0.9996,-1.0028,0.35,0.35,0.15,0.15
4.0,7.5131,16.8084,26.6961,0.9994,-0.9998,0.35,0.35,0.1501,0.1499
5.0,6.8301,16.8084,24.5139,0.9989,-1.0001,0.35,0.35,0.15,0.15
6.0,6.2092,15.2498,23.182,0.9988,-1.0007,0.35,0.35,0.15,0.15
7.0,5.6447,13.9741,22.3204,0.9995,-0.9989,0.35,0.35,0.15,0.15
8.0,5.1316,13.3054,20.1289,0.9981,-0.9994,0.35,0.35,0.15,0.15
9.0,4.6651,11.7132,18.8415,0.9985,-0.9996,0.35,0.35,0.15,0.15
10.0,4.241,11.7132,17.2882,0.998,-1.0007,0.35,0.35,0.15,0.15
11.0,3.8554,10.2188,14.9327,0.9975,-1.0006,0.35,0.35,0.15,0.15
12.0,3.5049,9.6642,14.1961,0.9955,-1.0007,0.35,0.35,0.15,0.15
13.0,3.1863,8.4202,12.1349,0.9982,-0.9993,0.35,0.35,0.15,0.15
14.0,2.8966,7.1163,10.706,0.9977,-0.9986,0.35,0.35,0.15,0.15
15.0,2.6333,6.4117,9.3008,0.9955,-0.9988,0.35,0.35,0.15,0.15
16.0,2.3939,5.4581,7.7388,0.9954,-0.9977,0.35,0.35,0.15,0.15
17.0,2.1763,4.5762,7.7177,0.9943,-0.9988,0.35,0.35,0.15,0.15
18.0,1.9784,4.5762,6.7785,0.997,-0.9974,0.35,0.35,0.15,0.15
19.0,1.7986,4.3923,5.9953,0.9954,-0.9978,0.35,0.35,0.15,0.15
20.0,1.6351,4.3923,6.0282,0.9947,-0.9979,0.35,0.35,0.15,0.15
21.0,1.4864,3.5126,5.1256,0.9947,-0.9973,0.35,0.35,0.15,0.15
22.0,1.3513,3.3396,4.7219,0.9939,-0.998,0.35,0.35,0.15,0.15
23.0,1.2285,2.8814,4.5199,0.9945,-0.9977,0.35,0.35,0.15,0.15
24.0,1.1168,2.8332,4.0677,0.9946,-0.996,0.35,0.35,0.15,0.15
25.0,1.0153,2.8332,3.9696,0.9949,-0.997,0.35,0.35,0.15,0.15
26.0,0.923,2.7109,3.5806,0.9943,-0.9957,0.35,0.35,0.15,0.15
27.0,0.8391,2.6982,3.5564,0.9961,-0.9973,0.35,0.35,0.15,0.15
28.0,0.7628,2.2692,3.0192,0.994,-0.9976,0.35,0.35,0.15,0.15
29.0,0.6934,2.1476,2.9755,0.9946,-0.9963,0.35,0.35,0.15,0.15
30.0,0.6304,2.1039,2.7289,0.9942,-0.9968,0.35,0.35,0.15,0.15
31.0,0.5731,2.0634,2.6677,0.995,-0.9972,0.35,0.35,0.15,0.15
32.0,0.521,2.0201,2.4958,0.9949,-0.9977,0.35,0.35,0.15,0.15
33.0,0.4736,1.8341,2.2726,0.9955,-0.9974,0.35,0.35,0.15,0.15
34.0,0.4306,1.7912,2.3464,0.9951,-0.9974,0.35,0.35,0.15,0.15
35.0,0.3914,1.6808,2.0628,0.9954,-0.9975,0.35,0.35,0.15,0.15
36.0,0.3558,1.5862,1.8395,0.9957,-0.9976,0.35,0.35,0.15,0.15
37.0,0.3235,1.413,1.7673,0.9964,-0.9964,0.35,0.35,0.15,0.15
38.0,0.2941,1.413,1.6757,0.9961,-0.9968,0.35,0.35,0.15,0.15
39.0,0.2673,1.3621,1.6879,0.9968,-0.9975,0.35,0.35,0.15,0.15
40.0,0.243,1.2605,1.469,0.9968,-0.9975,0.35,0.35,0.15,0.15
41.0,0.2209,1.2605,1.4669,0.9972,-0.9978,0.35,0.35,0.15,0.15
42.0,0.2009,1.1704,1.3464,0.998,-0.9978,0.35,0.35,0.15,0.15
43.0,0.1826,1.128,1.2738,0.9977,-0.9979,0.35,0.35,0.15,0.15
44.0,0.166,1.0652,1.215,0.9983,-0.9979,0.35,0.35,0.15,0.15
45.0,0.1509,1.0526,1.1475,0.9988,-0.9977,0.35,0.35,0.15,0.15
46.0,0.1372,1.0524,1.1738,0.9982,-0.9981,0.35,0.35,0.15,0.15
47.0,0.1247,0.9911,1.1137,0.9984,-0.9981,0.35,0.35,0.15,0.15
48.0,0.1134,0.9911,1.0849,0.9978,-0.9982,0.35,0.35,0.15,0.15
49.0,0.1031,0.9674,1.0409,0.9981,-0.9984,0.35,0.35,0.15,0.15
50.0,0.0937,0.9577,1.0424,0.9983,-0.9986,0.35,0.35,0.15,0.15
51.0,0.0852,0.9361,0.9914,0.9982,-0.9986,0.35,0.35,0.15,0.15
52.0,0.0774,0.9303,0.9823,0.998,-0.9989,0.35,0.35,0.15,0.15
53.0,0.0704,0.8993,0.9772,0.998,-0.9988,0.35,0.35,0.15,0.15
54.0,0.064,0.8993,0.9525,0.9982,-0.9989,0.35,0.35,0.15,0.15
55.0,0.0582,0.8829,0.9242,0.9975,-0.9993,0.35,0.35,0.15,0.15
56.0,0.0529,0.8829,0.9504,0.9975,-0.9994,0.35,0.35,0.15,0.15
57.0,0.0481,0.8829,0.9271,0.9977,-0.9993,0.35,0.35,0.15,0.15
58.0,0.0437,0.8704,0.9042,0.9982,-0.9993,0.35,0.35,0.15,0.15
59.0,0.0397,0.8605,0.8866,0.9982,-0.9995,0.35,0.35,0.15,0.15
60.0,0.0361,0.8515,0.8746,0.9985,-0.9994,0.35,0.35,0.15,0.15
61.0,0.0328,0.8406,0.8698,0.9984,-0.9997,0.35,0.35,0.15,0.15
62.0,0.0299,0.8391,0.8627,0.9982,-0.9997,0.35,0.35,0.15,0.15
63.0,0.0271,0.8328,0.8555,0.9987,-0.9995,0.35,0.35,0.15,0.15
64.0,0.0247,0.8328,0.8504,0.9987,-0.9993,0.35,0.35,0.15,0.15
65.0,0.0224,0.8328,0.8453,0.9986,-0.9992,0.35,0.35,0.15,0.15
66.0,0.0204,0.8277,0.8417,0.9987,-0.999,0.35,0.35,0.15,0.15
67.0,0.0185,0.8237,0.8372,0.9987,-0.999,0.35,0.35,0.15,0.15
68.0,0.0169,0.8218,0.8347,0.9986,-0.999,0.35,0.35,0.15,0.15
69.0,0.0153,0.8218,0.8305,0.9988,-0.999,0.35,0.35,0.15,0.15
70.0,0.0139,0.8218,0.832,0.999,-0.9989,0.35,0.35,0.15,0.15
71.0,0.0127,0.8169,0.8256,0.999,-0.9988,0.35,0.35,0.15,0.15
72.0,0.0115,0.816,0.8215,0.9991,-0.9988,0.35,0.35,0.15,0.15
73.0,0.0105,0.8115,0.8175,0.9991,-0.9988,0.35,0.35,0.15,0.15
74.0,0.0095,0.8115,0.8174,0.9989,-0.999,0.35,0.35,0.15,0.15
75.0,0.0086,0.8115,0.8191,0.999,-0.9989,0.35,0.35,0.15,0.15
76.0,0.0079,0.8115,0.8207,0.9988,-0.9989,0.35,0.35,0.15,0.15
77.0,0.0071,0.8112,0.8159,0.9988,-0.9988,0.35,0.35,0.15,0.15
78.0,0.0065,0.8093,0.8151,0.9988,-0.9989,0.35,0.35,0.15,0.15
79.0,0.0059,0.8093,0.8136,0.9988,-0.9988,0.35,0.35,0.15,0.15
80.0,0.0054,0.8061,0.8086,0.9988,-0.9987,0.35,0.35,0.15,0.15
81.0,0.0049,0.8057,0.8092,0.9988,-0.9987,0.35,0.35,0.15,0.15
82.0,0.0044,0.8034,0.8065,0.9989,-0.9987,0.35,0.35,0.15,0.15
83.0,0.004,0.8032,0.8062,0.9989,-0.9986,0.35,0.35,0.15,0.15
84.0,0.0037,0.8032,0.8073,0.999,-0.9986,0.35,0.35,0.15,0.15
85.0,0.0033,0.8029,0.8046,0.999,-0.9986,0.35,0.35,0.15,0.15
86.0,0.003,0.8025,0.8043,0.999,-0.9987,0.35,0.35,0.15,0.15
87.0,0.0028,0.8009,0.8025,0.999,-0.9986,0.35,0.35,0.15,0.15
88.0,0.0025,0.8009,0.8026,0.999,-0.9986,0.35,0.35,0.15,0.15
89.0,0.0023,0.8009,0.8027,0.999,-0.9986,0.35,0.35,0.15,0.15
90.0,0.0021,0.7997,0.8006,0.999,-0.9986,0.35,0.35,0.15,0.15
