i,theta,chi2_min,chi2_avg
1.0,10.0,34.6122,59.648
2.0,9.09090909,31.0991,52.1951
3.0,8.26446281,29.7509,47.4952
4.0,7.51314801,25.7628,44.888
5.0,6.83013455,25.2398,40.4335
6.0,6.20921323,21.2204,37.0503
7.0,5.6447393,21.2204,34.8396
8.0,5.13158118,19.6968,30.3641
9.0,4.6650738,17.5633,28.5521
10.0,4.24097618,15.3462,26.1922
11.0,3.85543289,14.7686,23.9266
12.0,3.50493899,13.8489,22.165
13.0,3.18630818,13.2098,20.5428
14.0,2.8966438,11.897,19.1443
15.0,2.63331254,10.6581,17.1565
16.0,2.39392049,9.9921,16.2226
17.0,2.17629136,9.1021,14.7222
18.0,1.97844669,9.1021,13.7802
19.0,1.7985879,8.3451,12.669
20.0,1.63507991,8.2528,11.663
21.0,1.48643628,7.3973,11.0988
22.0,1.35130571,6.8638,10.1714
23.0,1.22845974,6.4144,9.3783
24.0,1.11678158,6.2614,8.8033
25.0,1.01525598,5.6468,8.1264
26.0,0.92295998,5.5529,7.7335
27.0,0.83905453,5.0508,6.9709
28.0,0.76277684,4.8856,6.6486
29.0,0.69343349,4.2092,6.1039
30.0,0.63039409,4.0786,5.732
31.0,0.57308553,3.7315,5.302
32.0,0.52098685,3.6514,5.0818
33.0,0.47362441,3.2894,4.6555
34.0,0.43056764,3.2894,4.3844
35.0,0.39142513,3.1819,4.1647
36.0,0.35584103,2.8284,3.8762
37.0,0.32349184,2.8201,3.662
38.0,0.29408349,2.5643,3.4292
39.0,0.26734863,2.469,3.1855
40.0,0.24304421,2.3752,3.0605
41.0,0.22094928,2.2477,2.8938
42.0,0.20086298,2.1275,2.6943
43.0,0.18260271,2.025,2.5469
44.0,0.16600247,1.8974,2.3788
45.0,0.15091133,1.8269,2.26
46.0,0.13719212,1.7793,2.156
47.0,0.12472011,1.682,2.0536
48.0,0.11338192,1.5892,1.9243
49.0,0.10307447,1.5143,1.8579
50.0,0.09370406,1.4813,1.7279
51.0,0.08518551,1.42,1.6505
52.0,0.07744138,1.3502,1.5943
53.0,0.07040125,1.3148,1.514
54.0,0.06400114,1.274,1.4858
55.0,0.05818285,1.2069,1.3927
56.0,0.0528935,1.1822,1.335
57.0,0.048085,1.1244,1.2976
58.0,0.04371364,1.1212,1.2512
59.0,0.03973967,1.0743,1.2009
60.0,0.03612697,1.0621,1.1812
61.0,0.0328427,1.036,1.1349
62.0,0.029857,1.0184,1.1134
63.0,0.02714273,1.0,1.0803
64.0,0.02467521,0.9652,1.0487
65.0,0.02243201,0.942,1.0199
66.0,0.02039273,0.942,1.0066
67.0,0.01853885,0.9325,0.9882
68.0,0.0168535,0.9161,0.9669
69.0,0.01532136,0.91,0.9526
70.0,0.01392851,0.8915,0.9438
71.0,0.01266228,0.8915,0.9279
72.0,0.01151117,0.877,0.9158
73.0,0.0104647,0.877,0.9057
74.0,0.00951336,0.8696,0.8962
75.0,0.00864851,0.8637,0.8865
76.0,0.00786228,0.8601,0.883
77.0,0.00714753,0.8544,0.8744
78.0,0.00649775,0.8542,0.8701
79.0,0.00590705,0.8486,0.8654
80.0,0.00537004,0.8433,0.8584
81.0,0.00488186,0.8433,0.8557
82.0,0.00443805,0.8394,0.8503
83.0,0.00403459,0.8346,0.8481
84.0,0.00366781,0.8346,0.8447
85.0,0.00333438,0.833,0.8412
86.0,0.00303125,0.8286,0.8372
87.0,0.00275568,0.8286,0.8369
88.0,0.00250517,0.8212,0.8303
89.0,0.00227742,0.8202,0.8281
90.0,0.00207038,0.8164,0.8235
91.0,0.00188217,0.8138,0.8191
92.0,0.00171106,0.807,0.8113
93.0,0.00155551,0.7964,0.8029
94.0,0.0014141,0.7927,0.7961
95.0,0.00128555,0.7883,0.792
96.0,0.00116868,0.7869,0.7897
97.0,0.00106243,0.7823,0.7849
98.0,0.00096585,0.7823,0.7863
99.0,0.00087805,0.7804,0.7827
100.0,0.00079822,0.7778,0.7796
101.0,0.00072566,0.7759,0.7775
102.0,0.00065969,0.7751,0.7774
103.0,0.00059972,0.7716,0.7736
104.0,0.0005452,0.7708,0.7721
105.0,0.00049563,0.7699,0.7712
106.0,0.00045058,0.7693,0.7706
107.0,0.00040961,0.7693,0.7705
108.0,0.00037238,0.7681,0.7689
109.0,0.00033852,0.7677,0.7686
110.0,0.00030775,0.7671,0.7678
111.0,0.00027977,0.7653,0.7664
112.0,0.00025434,0.7651,0.7662
113.0,0.00023122,0.765,0.7657
114.0,0.0002102,0.7644,0.7649
115.0,0.00019109,0.7638,0.7642
116.0,0.00017372,0.7635,0.7638
117.0,0.00015792,0.7632,0.7636
118.0,0.00014357,0.7628,0.7633
119.0,0.00013052,0.7625,0.7628
120.0,0.00011865,0.7621,0.7625
121.0,0.00010786,0.7621,0.7625
122.0,9.806e-5,0.762,0.7622
123.0,8.914e-5,0.7618,0.762
124.0,8.104e-5,0.7615,0.7618
125.0,7.367e-5,0.7615,0.7617
126.0,6.698e-5,0.7612,0.7615
127.0,6.089e-5,0.761,0.7612
128.0,5.535e-5,0.7607,0.7609
129.0,5.032e-5,0.7604,0.7606
130.0,4.574e-5,0.7602,0.7603
131.0,4.159e-5,0.7602,0.7603
132.0,3.781e-5,0.7601,0.7602
133.0,3.437e-5,0.7601,0.7601
134.0,3.124e-5,0.76,0.7601
135.0,2.84e-5,0.7599,0.76
136.0,2.582e-5,0.7598,0.7599
137.0,2.347e-5,0.7596,0.7597
138.0,2.134e-5,0.7595,0.7596
139.0,1.94e-5,0.7594,0.7594
140.0,1.764e-5,0.7593,0.7594
141.0,1.603e-5,0.7593,0.7593
142.0,1.458e-5,0.7592,0.7592
143.0,1.325e-5,0.7591,0.7592
144.0,1.205e-5,0.7591,0.7591
145.0,1.095e-5,0.759,0.7591
146.0,9.96e-6,0.759,0.759
147.0,9.05e-6,0.7589,0.759
148.0,8.23e-6,0.7589,0.7589
149.0,7.48e-6,0.7588,0.7588
150.0,6.8e-6,0.7588,0.7588
