omega,S,S_edge,S_cont,Sr,Sr_edge,Sr_cont
-1.5024999999999995,0.0,0.0,0.0
-1.4975000000000005,0.00024127431579569608,0.00024127431579569608,0.0
-1.4924999999999997,0.0046068314672240715,0.0046068314672240715,0.0
-1.4875000000000007,0.022280175099258812,0.022280175099258812,0.0
-1.4825,0.10509004417376291,0.10509004417376291,0.0
-1.4774999999999991,0.2795238346716827,0.2795238346716827,0.0
-1.4725000000000001,0.5614679523236911,0.5614679523236911,0.0
-1.4674999999999994,0.981451137900307,0.981451137900307,0.0
-1.4625000000000004,1.3526365931072404,1.3526365931072404,0.0
-1.4574999999999996,1.6579089211677382,1.6579089211677382,0.0
-1.4525000000000006,1.6842304410565743,1.6842304410565743,0.0
-1.4474999999999998,1.4573948850967817,1.4573948850967817,0.0
-1.442499999999999,1.3171768085076423,1.3171768085076423,0.0
-1.4375,1.2033782694981312,1.2033782694981312,0.0
-1.4324999999999992,1.075457643192203,1.075457643192203,0.0
-1.4275000000000002,0.9700056875447489,0.9700056875447489,0.0
-1.4224999999999994,0.8812016596871974,0.8812016596871974,0.0
-1.4175000000000004,0.818508036692161,0.818508036692161,0.0
-1.4124999999999996,0.7678027312632224,0.7678027312632224,0.0
-1.4075000000000006,0.7265749825516332,0.7265749825516332,0.0
-1.4024999999999999,0.6921858527283781,0.6921858527283781,0.0
-1.397499999999999,0.6607070943394083,0.6607070943394083,0.0
-1.3925,0.6348455036150571,0.6348455036150571,0.0
-1.3874999999999993,0.6107859304368051,0.6107859304368051,0.0
-1.3825000000000003,0.5885962332059698,0.5885962332059698,0.0
-1.3774999999999995,0.5688795977120402,0.5688795977120402,0.0
-1.3725000000000005,0.5519225372050238,0.5519225372050238,0.0
-1.3674999999999997,0.534980556342745,0.534980556342745,0.0
-1.362499999999999,0.5194485222633968,0.5194485222633968,0.0
-1.3575,0.5062010543617395,0.5062010543617395,0.0
-1.3524999999999991,0.4914682414534647,0.4914682414534647,0.0
-1.3475000000000001,0.4816740121966331,0.4816740121966331,0.0
-1.3424999999999994,0.4691277477752569,0.4691277477752569,0.0
-1.3375000000000004,0.45849659823550903,0.45849659823550903,0.0
-1.3324999999999996,0.44708130716942507,0.44708130716942507,0.0
-1.3275000000000006,0.43767914867576163,0.43767914867576163,0.0
-1.3224999999999998,0.4289706538400107,0.4289706538400107,0.0
-1.317499999999999,0.4218756809911434,0.4218756809911434,0.0
-1.3125,0.41105603589218026,0.41105603589218026,0.0
-1.3074999999999992,0.40585355845783555,0.40585355845783555,0.0
-1.3025000000000002,0.39749189545104097,0.39749189545104097,0.0
-1.2974999999999994,0.3901556482863781,0.3901556482863781,0.0
-1.2925000000000004,0.3834678258454161,0.3834678258454161,0.0
-1.2874999999999996,0.3761391185031218,0.3761391185031218,0.0
-1.2825000000000006,0.3704842517266603,0.3704842517266603,0.0
-1.2774999999999999,0.3639849248449136,0.3639849248449136,0.0
-1.272499999999999,0.35893324385794123,0.35893324385794123,0.0
-1.2675,0.35377600535780823,0.35377600535780823,0.0
-1.2624999999999993,0.3485584482787263,0.3485584482787263,0.0
-1.2575000000000003,0.3419234045943446,0.3419234045943446,0.0
-1.2524999999999995,0.33703005987711326,0.33703005987711326,0.0
-1.2475000000000005,0.33238552929804605,0.33238552929804605,0.0
-1.2424999999999997,0.32744694564660287,0.32744694564660287,0.0
-1.237499999999999,0.3238127512649302,0.3238127512649302,0.0
-1.2325,0.3193416366003412,0.3193416366003412,0.0
-1.2274999999999991,0.3149685396265442,0.3149685396265442,0.0
-1.2225000000000001,0.3107537789224881,0.3107537789224881,0.0
-1.2174999999999994,0.30656163768553785,0.30656163768553785,0.0
-1.2125000000000004,0.3026333902314892,0.3026333902314892,0.0
-1.2074999999999996,0.29875792153402086,0.29875792153402086,0.0
-1.2025000000000006,0.2954554793365673,0.2954554793365673,0.0
-1.1974999999999998,0.292891939731238,0.292891939731238,0.0
-1.192499999999999,0.28603824119816645,0.28603824119816645,0.0
-1.1875,0.2839874095139031,0.2839874095139031,0.0
-1.1824999999999992,0.284635834237604,0.284635834237604,0.0
-1.1775000000000002,0.2758971801123786,0.2758971801123786,0.0
-1.1724999999999994,0.272888790987301,0.272888790987301,0.0
-1.1675000000000004,0.27502256071761927,0.27502256071761927,0.0
-1.1624999999999996,0.26855339312534715,0.26855339312534715,0.0
-1.1575000000000006,0.26132270347384484,0.26132270347384484,0.0
-1.1524999999999999,0.26742995959242344,0.26742995959242344,0.0
-1.147499999999999,0.25981473900012175,0.25981473900012175,0.0
-1.1425,0.25308167762494815,0.25308167762494815,0.0
-1.1374999999999993,0.2573492170855845,0.2573492170855845,0.0
-1.1325000000000003,0.2523804741446669,0.2523804741446669,0.0
-1.1274999999999995,0.24606964282213573,0.24606964282213573,0.0
-1.1225000000000005,0.24848992580246126,0.24848992580246126,0.0
-1.1174999999999997,0.24395095273655473,0.24395095273655473,0.0
-1.112499999999999,0.2412667759733276,0.2412667759733276,0.0
-1.1075,0.23904252837458603,0.23904252837458603,0.0
-1.1024999999999991,0.23782861697323898,0.23782861697323898,0.0
-1.0975000000000001,0.23461665264420872,0.23461665264420872,0.0
-1.0924999999999994,0.22863757350589667,0.22863757350589667,0.0
-1.0875000000000004,0.23331226337443825,0.23331226337443825,0.0
-1.0824999999999996,0.22675261791374277,0.22675261791374277,0.0
-1.0775000000000006,0.22480734374263994,0.22480734374263994,0.0
-1.0724999999999998,0.2265038037755785,0.2265038037755785,0.0
-1.067499999999999,0.21640798162400224,0.21640798162400224,0.0
-1.0625,0.22271881294653348,0.22271881294653348,0.0
-1.0574999999999992,0.21450040656474256,0.21450040656474256,0.0
-1.0525000000000002,0.21826277792668167,0.21826277792668167,0.0
-1.0474999999999994,0.21171821211072345,0.21171821211072345,0.0
-1.0425000000000004,0.2109491502291247,0.2109491502291247,0.0
-1.0374999999999996,0.21192932713704465,0.21192932713704465,0.0
-1.0325000000000006,0.2042764074328999,0.2042764074328999,0.0
-1.0274999999999999,0.21015746888042003,0.21015746888042003,0.0
-1.022499999999999,0.19899853177486906,0.19899853177486906,0.0
-1.0175,0.20780504430141195,0.20780504430141195,0.0
-1.0124999999999993,0.19463297462344065,0.19463297462344065,0.0
-1.0075000000000003,0.20408791187368455,0.20408791187368455,0.0
-1.0024999999999995,0.19241626684706778,0.19241626684706778,0.0
-0.9975000000000005,0.19921718662355895,0.19921718662355895,0.0
-0.9924999999999997,0.19105155899834836,0.19105155899834836,0.0
-0.9874999999999989,0.19337382428788188,0.19337382428788188,0.0
-0.9824999999999999,0.19050869178780802,0.19050869178780802,0.0
-0.9774999999999991,0.18742490443904428,0.18742490443904428,0.0
-0.9725000000000001,0.19043329356412186,0.19043329356412186,0.0
-0.9674999999999994,0.18275021457050264,0.18275021457050264,0.0
-0.9625000000000004,0.18767371857720858,0.18767371857720858,0.0
-0.9574999999999996,0.18012635638622443,0.18012635638622443,0.0
-0.9525000000000006,0.18393396668237527,0.18393396668237527,0.0
-0.9474999999999998,0.1787842680046109,0.1787842680046109,0.0
-0.942499999999999,0.17864101137960722,0.17864101137960722,0.0
-0.9375,0.17837711759670566,0.17837711759670566,0.0
-0.9324999999999992,0.17357425074789756,0.17357425074789756,0.0
-0.9275000000000002,0.17778901145195367,0.17778901145195367,0.0
-0.9224999999999994,0.16920115377410058,0.16920115377410058,0.0
-0.9175000000000004,0.176115170886121,0.176115170886121,0.0
-0.9124999999999996,0.16616260535954852,0.16616260535954852,0.0
-0.9075000000000006,0.17297106495840833,0.17297106495840833,0.0
-0.9024999999999999,0.16584593282006668,0.16584593282006668,0.0
-0.8974999999999991,0.16886940158988153,0.16886940158988153,0.0
-0.8925000000000001,0.16413439314239095,0.16413439314239095,0.0
-0.8874999999999993,0.1657629947740119,0.1657629947740119,0.0
-0.8825000000000003,0.16145775620153247,0.16145775620153247,0.0
-0.8774999999999995,0.16349350824105865,0.16349350824105865,0.0
-0.8725000000000005,0.16064345538572203,0.16064345538572203,0.0
-0.8674999999999997,0.16057559698440446,0.16057559698440446,0.0
-0.8624999999999989,0.15619496018823883,0.15619496018823883,0.0
-0.8574999999999999,0.15876603961593672,0.15876603961593672,0.0
-0.8524999999999991,0.15680568580009668,0.15680568580009668,0.0
-0.8475000000000001,0.1546568364250413,0.1546568364250413,0.0
-0.8424999999999994,0.15569733191191024,0.15569733191191024,0.0
-0.8375000000000004,0.14928848289858704,0.14928848289858704,0.0
-0.8324999999999996,0.15710727869484134,0.15710727869484134,0.0
-0.8275000000000006,0.14863251835251748,0.14863251835251748,0.0
-0.8224999999999998,0.14888133249068178,0.14888133249068178,0.0
-0.817499999999999,0.14998968637886828,0.14998968637886828,0.0
-0.8125,0.14670232382615192,0.14670232382615192,0.0
-0.8074999999999992,0.15021588104992675,0.15021588104992675,0.0
-0.8025000000000002,0.14269867814841708,0.14269867814841708,0.0
-0.7974999999999994,0.14424434173398326,0.14424434173398326,0.0
-0.7925000000000004,0.14666462471430883,0.14666462471430883,0.0
-0.7874999999999996,0.14130381101022318,0.14130381101022318,0.0
-0.7825000000000006,0.1424951029444644,0.1424951029444644,0.0
-0.7774999999999999,0.14247248347735864,0.14247248347735864,0.0
-0.7724999999999991,0.1369834927930065,0.1369834927930065,0.0
-0.7675000000000001,0.1423744657865666,0.1423744657865666,0.0
-0.7624999999999993,0.1393509970167518,0.1393509970167518,0.0
-0.7575000000000003,0.13274611262184458,0.13274611262184458,0.0
-0.7524999999999995,0.14073078451020843,0.14073078451020843,0.0
-0.7475000000000005,0.1349402009311117,0.1349402009311117,0.0
-0.7424999999999997,0.13279889137842493,0.13279889137842493,0.0
-0.7374999999999989,0.13801644845750685,0.13801644845750685,0.0
-0.7324999999999999,0.1302805907073073,0.1302805907073073,0.0
-0.7274999999999991,0.13218816576656703,0.13218816576656703,0.0
-0.7225000000000001,0.1341635992271443,0.1341635992271443,0.0
-0.7174999999999994,0.12811666168751465,0.12811666168751465,0.0
-0.7125000000000004,0.12990359958887654,0.12990359958887654,0.0
-0.7074999999999996,0.1302579712402015,0.1302579712402015,0.0
-0.7025000000000006,0.12927779433228145,0.12927779433228145,0.0
-0.6974999999999998,0.12495747611506475,0.12495747611506475,0.0
-0.692499999999999,0.12698568833222235,0.12698568833222235,0.0
-0.6875,0.13028813052967592,0.13028813052967592,0.0
-0.6824999999999992,0.12038834375968378,0.12038834375968378,0.0
-0.6775000000000002,0.1241507151216229,0.1241507151216229,0.0
-0.6724999999999994,0.1299789978125627,0.1299789978125627,0.0
-0.6675000000000004,0.11681446795696003,0.11681446795696003,0.0
-0.6624999999999996,0.12304990105580504,0.12304990105580504,0.0
-0.6575000000000006,0.12664639632563465,0.12664639632563465,0.0
-0.6524999999999999,0.11627914056878833,0.11627914056878833,0.0
-0.6474999999999991,0.11983793672677484,0.11983793672677484,0.0
-0.6425000000000001,0.12343443199660446,0.12343443199660446,0.0
-0.6374999999999993,0.11619620252273355,0.11619620252273355,0.0
-0.6325000000000003,0.11731963605565728,0.11731963605565728,0.0
-0.6274999999999995,0.120893511858381,0.120893511858381,0.0
-0.6225000000000005,0.11383623812135692,0.11383623812135692,0.0
-0.6174999999999997,0.115442220285872,0.115442220285872,0.0
-0.6124999999999989,0.11856370674647883,0.11856370674647883,0.0
-0.6074999999999999,0.1151632468582332,0.1151632468582332,0.0
-0.6024999999999991,0.11005878711468056,0.11005878711468056,0.0
-0.5975000000000001,0.11734225552276313,0.11734225552276313,0.0
-0.5924999999999994,0.11580413175956558,0.11580413175956558,0.0
-0.5875000000000004,0.10457733625269705,0.10457733625269705,0.0
-0.5824999999999996,0.11422830888452491,0.11422830888452491,0.0
-0.5775000000000006,0.11805099882541296,0.11805099882541296,0.0
-0.5724999999999998,0.10529361937771553,0.10529361937771553,0.0
-0.567499999999999,0.10481107074612414,0.10481107074612414,0.0
-0.5625,0.1191367332464936,0.1191367332464936,0.0
-0.5574999999999992,0.10822661027910696,0.10822661027910696,0.0
-0.5525000000000002,0.09882445178544341,0.09882445178544341,0.0
-0.5474999999999994,0.1162640609240511,0.1162640609240511,0.0
-0.5425000000000004,0.11083538881864793,0.11083538881864793,0.0
-0.5374999999999996,0.09635892987090615,0.09635892987090615,0.0
-0.5325000000000006,0.1095611588383519,0.1095611588383519,0.0
-0.5274999999999999,0.11014926498310391,0.11014926498310391,0.0
-0.5224999999999991,0.10258682314738254,0.10258682314738254,0.0
-0.5175000000000001,0.09831928368674617,0.09831928368674617,0.0
-0.5124999999999993,0.11425092835163075,0.11425092835163075,0.0
-0.5075000000000003,0.10147846925919608,0.10147846925919608,0.0
-0.5024999999999995,0.09480572646297136,0.09480572646297136,0.0
-0.4975000000000005,0.11063181361469533,0.11063181361469533,0.0
-0.4924999999999997,0.10582140694351859,0.10582140694351859,0.0
-0.48749999999999893,0.09024413392995899,0.09024413392995899,0.0
-0.48249999999999993,0.10213443380526561,0.10213443380526561,0.0
-0.47749999999999915,0.11246399045026886,0.11246399045026886,0.0
-0.47250000000000014,0.09709783246303047,0.09709783246303047,0.0
-0.46749999999999936,0.08661747937065492,0.08661747937065492,0.0
-0.46250000000000036,0.10909368985149775,0.10909368985149775,0.0
-0.4574999999999996,0.10656784935801156,0.10656784935801156,0.0
-0.45250000000000057,0.08817822260095834,0.08817822260095834,0.0
-0.4474999999999998,0.08995008085758296,0.08995008085758296,0.0
-0.442499999999999,0.10943298185808543,0.10943298185808543,0.0
-0.4375,0.10322016822634626,0.10322016822634626,0.0
-0.4324999999999992,0.0850567361403515,0.0850567361403515,0.0
-0.4275000000000002,0.091714399291839,0.091714399291839,0.0
-0.42249999999999943,0.10284317710791552,0.10284317710791552,0.0
-0.4175000000000004,0.10181776126578379,0.10181776126578379,0.0
-0.41249999999999964,0.08672303688381552,0.08672303688381552,0.0
-0.40750000000000064,0.0915259037326236,0.0915259037326236,0.0
-0.40249999999999986,0.09647956702880399,0.09647956702880399,0.0
-0.3974999999999991,0.10031733661442928,0.10031733661442928,0.0
-0.39250000000000007,0.08925641719967034,0.08925641719967034,0.0
-0.3874999999999993,0.08961078885099527,0.08961078885099527,0.0
-0.3825000000000003,0.09083224007471098,0.09083224007471098,0.0
-0.3774999999999995,0.09759546073935908,0.09759546073935908,0.0
-0.3725000000000005,0.09204615147605809,0.09204615147605809,0.0
-0.3674999999999997,0.08973896583126173,0.08973896583126173,0.0
-0.36249999999999893,0.08458926715349735,0.08458926715349735,0.0
-0.35749999999999993,0.09390094777873749,0.09390094777873749,0.0
-0.35249999999999915,0.09601209804194984,0.09601209804194984,0.0
-0.34750000000000014,0.08829885975885618,0.08829885975885618,0.0
-0.34249999999999936,0.08245549742317916,0.08245549742317916,0.0
-0.33750000000000036,0.08809528455490355,0.08809528455490355,0.0
-0.3324999999999996,0.09627599182485137,0.09627599182485137,0.0
-0.32750000000000057,0.09047786842338607,0.09047786842338607,0.0
-0.3224999999999998,0.0836920282916321,0.0836920282916321,0.0
-0.317499999999999,0.08100785152840498,0.08100785152840498,0.0
-0.3125,0.09106597456813807,0.09106597456813807,0.0
-0.3074999999999992,0.09681131921302309,0.09681131921302309,0.0
-0.3025000000000002,0.08116618779814591,0.08116618779814591,0.0
-0.29749999999999943,0.07753199341647324,0.07753199341647324,0.0
-0.2925000000000004,0.0853960281469392,0.0853960281469392,0.0
-0.28749999999999964,0.10127489405524345,0.10127489405524345,0.0
-0.28250000000000064,0.08289280712055884,0.08289280712055884,0.0
-0.27749999999999986,0.07116084351499312,0.07116084351499312,0.0
-0.2724999999999991,0.08251581600212808,0.08251581600212808,0.0
-0.26750000000000007,0.09850777924596155,0.09850777924596155,0.0
-0.2624999999999993,0.08989730210100266,0.08989730210100266,0.0
-0.2575000000000003,0.06957748081758386,0.06957748081758386,0.0
-0.2524999999999995,0.0720731620215956,0.0720731620215956,0.0
-0.2475000000000005,0.0981232483051622,0.0981232483051622,0.0
-0.24249999999999972,0.09471524859454797,0.09471524859454797,0.0
-0.23749999999999893,0.07375454240979686,0.07375454240979686,0.0
-0.23249999999999993,0.06416388835691794,0.06416388835691794,0.0
-0.22749999999999915,0.08346583362057364,0.08346583362057364,0.0
-0.22250000000000014,0.10610792019352601,0.10610792019352601,0.0
-0.21749999999999936,0.08030664804812374,0.08030664804812374,0.0
-0.21250000000000036,0.0608916054489388,0.0608916054489388,0.0
-0.20749999999999957,0.0707084541728762,0.0707084541728762,0.0
-0.20250000000000057,0.0998875667394182,0.0998875667394182,0.0
-0.1974999999999998,0.09439857605506613,0.09439857605506613,0.0
-0.192499999999999,0.06662187044908659,0.06662187044908659,0.0
-0.1875,0.059715393159434776,0.059715393159434776,0.0
-0.18249999999999922,0.08425751496927827,0.08425751496927827,0.0
-0.1775000000000002,0.09935223935124651,0.09935223935124651,0.0
-0.17249999999999943,0.08193524967974469,0.08193524967974469,0.0
-0.16750000000000043,0.05997174711996771,0.05997174711996771,0.0
-0.16249999999999964,0.06666710938329828,0.06666710938329828,0.0
-0.15750000000000064,0.09194813378526609,0.09194813378526609,0.0
-0.15249999999999986,0.09083224007471098,0.09083224007471098,0.0
-0.14749999999999908,0.07355096720584423,0.07355096720584423,0.0
-0.14250000000000007,0.061600348751588666,0.061600348751588666,0.0
-0.1374999999999993,0.07456130340323872,0.07456130340323872,0.0
-0.13250000000000028,0.08553174494957429,0.08553174494957429,0.0
-0.1274999999999995,0.0843253733705958,0.0843253733705958,0.0
-0.1225000000000005,0.07279698496898268,0.07279698496898268,0.0
-0.11749999999999972,0.06659171115961213,0.06659171115961213,0.0
-0.11249999999999893,0.07456884322560732,0.07456884322560732,0.0
-0.10749999999999993,0.07706452442961906,0.07706452442961906,0.0
-0.10249999999999915,0.0777657279099003,0.0777657279099003,0.0
-0.09750000000000014,0.07940940918625848,0.07940940918625848,0.0
-0.09249999999999936,0.073339852179523,0.073339852179523,0.0
-0.08750000000000036,0.06806951634386076,0.06806951634386076,0.0
-0.08249999999999957,0.06993939229127741,0.06993939229127741,0.0
-0.07750000000000057,0.07147751605447496,0.07147751605447496,0.0
-0.07249999999999979,0.08564484228510351,0.08564484228510351,0.0
-0.067499999999999,0.07813517920596247,0.07813517920596247,0.0
-0.0625,0.06736831286357953,0.06736831286357953,0.0
-0.05749999999999922,0.060823747047621265,0.060823747047621265,0.0
-0.05250000000000021,0.06580756963327611,0.06580756963327611,0.0
-0.04749999999999943,0.08547896619299397,0.08547896619299397,0.0
-0.042500000000000426,0.08551666530483705,0.08551666530483705,0.0
-0.037499999999999645,0.069456843659686,0.069456843659686,0.0
-0.03250000000000064,0.056194296113291346,0.056194296113291346,0.0
-0.027499999999999858,0.05542523423169255,0.05542523423169255,0.0
-0.022499999999999076,0.08406147958769426,0.08406147958769426,0.0
-0.01750000000000007,0.08602183340353428,0.08602183340353428,0.0
-0.01249999999999929,0.0799522763967988,0.0799522763967988,0.0
-0.007500000000000284,0.05705383586331351,0.05705383586331351,0.0
-0.0024999999999995026,0.048375500317037065,0.048375500317037065,0.0
0.0024999999999995026,0.07045964003471189,0.07045964003471189,0.0
0.007500000000000284,0.08561468299562905,0.08561468299562905,0.0
0.012500000000001066,0.08391822296269057,0.08391822296269057,0.0
0.01750000000000007,0.07009018873864971,0.07009018873864971,0.0
0.022500000000000853,0.04781001363939091,0.04781001363939091,0.0
0.027499999999999858,0.05713677390936828,0.05713677390936828,0.0
0.03250000000000064,0.0720203832650153,0.0720203832650153,0.0
0.037499999999999645,0.08712264746935215,0.08712264746935215,0.0
0.042500000000000426,0.08068363916655452,0.08068363916655452,0.0
0.04749999999999943,0.05770226058701445,0.05770226058701445,0.0
0.05250000000000021,0.04856399587625246,0.04856399587625246,0.0
0.057500000000000995,0.06031857894892403,0.06031857894892403,0.0
0.0625,0.07643117935065535,0.07643117935065535,0.0
0.06750000000000078,0.08523015205482964,0.08523015205482964,0.0
0.07249999999999979,0.07127394085052234,0.07127394085052234,0.0
0.07750000000000057,0.05586254392907227,0.05586254392907227,0.0
0.08249999999999957,0.04813422600124136,0.04813422600124136,0.0
