omega,S,S_edge,S_cont,Sr,Sr_edge,Sr_cont
-0.29749999999999943,0.0,0.0,0.0
-0.2925000000000004,0.029832563838488677,0.029832563838488677,0.0
-0.28749999999999964,0.23878617441405303,0.23878617441405303,0.0
-0.28250000000000064,0.4659610223804382,0.4659610223804382,0.0
-0.27749999999999986,0.6922059589213609,0.6922059589213609,0.0
-0.2724999999999991,0.9423521323707948,0.9423521323707948,0.0
-0.26750000000000007,1.1607053881658997,1.1607053881658997,0.0
-0.2624999999999993,1.412158464159227,1.412158464159227,0.0
-0.2575000000000003,1.6759014506133973,1.6759014506133973,0.0
-0.2524999999999995,1.9091081564746752,1.9091081564746752,0.0
-0.2475000000000005,2.1534989321827314,2.1534989321827314,0.0
-0.24249999999999972,2.365393073482055,2.365393073482055,0.0
-0.23749999999999893,2.3882136025177307,2.3882136025177307,0.0
-0.23249999999999993,2.344407234556075,2.344407234556075,0.0
-0.22749999999999915,2.339430951792789,2.339430951792789,0.0
-0.22250000000000014,2.342095022363033,2.342095022363033,0.0
-0.21749999999999936,2.3462921901482297,2.3462921901482297,0.0
-0.21250000000000036,2.327241572296861,2.327241572296861,0.0
-0.20749999999999957,2.362754135653039,2.362754135653039,0.0
-0.20250000000000057,2.354410065565105,2.354410065565105,0.0
-0.1974999999999998,2.3240245814195846,2.3240245814195846,0.0
-0.192499999999999,2.3356861733497096,2.3356861733497096,0.0
-0.1875,2.3457895353236546,2.3457895353236546,0.0
-0.18249999999999922,2.3506652871220264,2.3506652871220264,0.0
-0.1775000000000002,2.315982104226395,2.315982104226395,0.0
-0.17249999999999943,2.335937500761997,2.335937500761997,0.0
-0.16750000000000043,2.334127943393529,2.334127943393529,0.0
-0.16249999999999964,2.3329215718145506,2.3329215718145506,0.0
-0.15750000000000064,2.330458563174137,2.330458563174137,0.0
-0.15249999999999986,2.3370182086348312,2.3370182086348312,0.0
-0.14749999999999908,2.321033785213367,2.321033785213367,0.0
-0.14250000000000007,2.3505647561571115,2.3505647561571115,0.0
-0.1374999999999993,2.3304334304329073,2.3304334304329073,0.0
-0.13250000000000028,2.33216758957769,2.33216758957769,0.0
-0.1274999999999995,2.3433767921656976,2.3433767921656976,0.0
-0.1225000000000005,2.318947767691384,2.318947767691384,0.0
-0.11749999999999972,2.3403357304770225,2.3403357304770225,0.0
-0.11249999999999893,2.3307601560688807,2.3307601560688807,0.0
-0.10749999999999993,2.325457147669622,2.325457147669622,0.0
-0.10249999999999915,2.3542341363765034,2.3542341363765034,0.0
-0.09750000000000014,2.3305590941390513,2.3305590941390513,0.0
-0.09249999999999936,2.3238737849722115,2.3238737849722115,0.0
-0.08750000000000036,2.336239093656742,2.336239093656742,0.0
-0.08249999999999957,2.334203341617216,2.334203341617216,0.0
-0.07750000000000057,2.327065643108259,2.327065643108259,0.0
-0.07249999999999979,2.317867059818548,2.317867059818548,0.0
-0.067499999999999,2.363583516113587,2.363583516113587,0.0
-0.0625,2.323547059336238,2.323547059336238,0.0
-0.05749999999999922,2.302209362033057,2.302209362033057,0.0
-0.05250000000000021,2.3692635156312774,2.3692635156312774,0.0
-0.04749999999999943,2.363834843525874,2.363834843525874,0.0
-0.042500000000000426,2.26880794894009,2.26880794894009,0.0
-0.037499999999999645,2.3279201563100362,2.3279201563100362,0.0
-0.03250000000000064,2.3706458163988557,2.3706458163988557,0.0
-0.027499999999999858,2.317716263371176,2.317716263371176,0.0
-0.022499999999999076,2.2855212218571874,2.2855212218571874,0.0
-0.01750000000000007,2.371123338482201,2.371123338482201,0.0
-0.01249999999999929,2.3473728980210615,2.3473728980210615,0.0
-0.007500000000000284,2.2619467105846494,2.2619467105846494,0.0
-0.0024999999999995026,2.360291127012623,2.360291127012623,0.0
0.0024999999999995026,2.3814277623859725,2.3814277623859725,0.0
0.007500000000000284,2.257246887974877,2.257246887974877,0.0
0.012500000000001066,2.1639541525338712,2.1639541525338712,0.0
0.01750000000000007,2.513274122871811,2.513274122871811,0.0
0.022500000000000853,2.513274122871856,2.513274122871856,0.0
0.027499999999999858,2.513274122871803,2.513274122871803,0.0
0.03250000000000064,2.0248946953153606,2.0248946953153606,0.0
0.037499999999999645,2.2756943200367497,2.2756943200367497,0.0
0.042500000000000426,2.39341607995207,2.39341607995207,0.0
0.04749999999999943,2.3155548476255006,2.3155548476255006,0.0
0.05250000000000021,2.2629520202337954,2.2629520202337954,0.0
0.057500000000000995,2.348780331529869,2.348780331529869,0.0
0.0625,2.3847955497106224,2.3847955497106224,0.0
0.06750000000000078,2.2831838769229154,2.2831838769229154,0.0
0.07249999999999979,2.306783520936683,2.306783520936683,0.0
0.07750000000000057,2.35916015365733,2.35916015365733,0.0
0.08249999999999957,2.312161927559628,2.312161927559628,0.0
0.08750000000000036,2.3071353793138845,2.3071353793138845,0.0
0.09249999999999936,2.3458146680648824,2.3458146680648824,0.0
0.09750000000000014,2.3320670586127736,2.3320670586127736,0.0
0.10250000000000092,2.3087690074937526,2.3087690074937526,0.0
0.10749999999999993,2.330006173832019,2.330006173832019,0.0
0.11250000000000071,2.357074136135348,2.357074136135348,0.0
0.11749999999999972,2.29763520312943,2.29763520312943,0.0
0.1225000000000005,2.3284479438758385,2.3284479438758385,0.0
0.1274999999999995,2.346593783042973,2.346593783042973,0.0
0.13250000000000028,2.3135944938096666,2.3135944938096666,0.0
0.13750000000000107,2.3229187408055214,2.3229187408055214,0.0
0.14250000000000007,2.3265881210249133,2.3265881210249133,0.0
0.14750000000000085,2.3433516594244685,2.3433516594244685,0.0
0.15249999999999986,2.3082914854104075,2.3082914854104075,0.0
0.15750000000000064,2.327945289051265,2.327945289051265,0.0
0.16249999999999964,2.3397576774287625,2.3397576774287625,0.0
0.16750000000000043,2.318369714643123,2.318369714643123,0.0
0.17249999999999943,2.3186210420554105,2.3186210420554105,0.0
0.1775000000000002,2.331463872823285,2.331463872823285,0.0
0.182500000000001,2.329905642867105,2.329905642867105,0.0
0.1875,2.3205813958712502,2.3205813958712502,0.0
0.19250000000000078,2.3243764397967865,2.3243764397967865,0.0
0.1974999999999998,2.33432900532336,2.33432900532336,0.0
0.20250000000000057,2.316610422757114,2.316610422757114,0.0
0.20749999999999957,2.3231449354765803,2.3231449354765803,0.0
0.21250000000000036,2.3313633418583715,2.3313633418583715,0.0
0.21749999999999936,2.3217123692265433,2.3217123692265433,0.0
0.22250000000000014,2.329151660630244,2.329151660630244,0.0
0.22750000000000092,2.3280709527574097,2.3280709527574097,0.0
0.23249999999999993,2.3304585631741377,2.3304585631741377,0.0
0.2375000000000007,2.3191236968799855,2.3191236968799855,0.0
0.24249999999999972,2.3281463509810956,2.3281463509810956,0.0
0.2475000000000005,2.326236262647713,2.326236262647713,0.0
0.2524999999999995,2.0608596480136763,2.0608596480136763,0.0
0.2575000000000003,1.7768094066467022,1.7768094066467022,0.0
0.26250000000000107,1.49936907622288,1.49936907622288,0.0
0.26750000000000007,1.187471757574485,1.187471757574485,0.0
0.27250000000000085,0.9080208078523655,0.9080208078523655,0.0
0.27749999999999986,0.643473573678876,0.643473573678876,0.0
0.28250000000000064,0.3731206762815527,0.3731206762815527,0.0
0.28749999999999964,0.09990264638415541,0.09990264638415541,0.0
0.2925000000000004,0.0,0.0,0.0
0.29749999999999943,0.0,0.0,0.0
0.3025000000000002,0.0,0.0,0.0
0.307500000000001,0.0,0.0,0.0
0.3125,0.0,0.0,0.0
0.3175000000000008,0.0,0.0,0.0
0.3224999999999998,0.0,0.0,0.0
0.32750000000000057,0.0,0.0,0.0
0.3324999999999996,0.0,0.0,0.0
0.33750000000000036,0.0,0.0,0.0
0.34249999999999936,0.0,0.0,0.0
0.34750000000000014,0.0,0.0,0.0
0.3525000000000009,0.0,0.0,0.0
0.35749999999999993,0.0,0.0,0.0
0.3625000000000007,0.0,0.0,0.0
0.3674999999999997,0.0,0.0,0.0
0.3725000000000005,0.0,0.0,0.0
0.3774999999999995,0.0,0.0,0.0
0.3825000000000003,0.0,0.0,0.0
0.38750000000000107,0.0,0.0,0.0
0.39250000000000007,0.0,0.0,0.0
0.39750000000000085,0.0,0.0,0.0
0.40249999999999986,0.0,0.0,0.0
0.40750000000000064,0.0,0.0,0.0
0.41249999999999964,0.0,0.0,0.0
0.4175000000000004,0.0,0.0,0.0
0.42249999999999943,0.0,0.0,0.0
0.4275000000000002,0.0,0.0,0.0
0.432500000000001,0.0,0.0,0.0
0.4375,0.0,0.0,0.0
0.4425000000000008,0.0,0.0,0.0
0.4474999999999998,0.0,0.0,0.0
0.45250000000000057,0.0,0.0,0.0
0.4574999999999996,0.0,0.0,0.0
0.46250000000000036,0.0,0.0,0.0
0.46749999999999936,0.0,0.0,0.0
0.47250000000000014,0.0,0.0,0.0
0.4775000000000009,0.0,0.0,0.0
0.48249999999999993,0.0,0.0,0.0
0.4875000000000007,0.0,0.0,0.0
0.4924999999999997,0.0,0.0,0.0
0.4975000000000005,0.0,0.0,0.0
0.5024999999999995,0.0,0.0,0.0
0.5075000000000003,0.0,0.0,0.0
0.5125000000000011,0.0,0.0,0.0
0.5175000000000001,0.0,0.0,0.0
0.5225000000000009,0.0,0.0,0.0
0.5274999999999999,0.0,0.0,0.0
0.5325000000000006,0.0,0.0,0.0
0.5374999999999996,0.0,0.0,0.0
0.5425000000000004,0.0,0.0,0.0
0.5474999999999994,0.0,0.0,0.0
0.5525000000000002,0.0,0.0,0.0
0.557500000000001,0.0,0.0,0.0
0.5625,0.0,0.0,0.0
0.5675000000000008,0.0,0.0,0.0
0.5724999999999998,0.0,0.0,0.0
0.5775000000000006,0.0,0.0,0.0
0.5824999999999996,0.0,0.0,0.0
0.5875000000000004,0.0,0.0,0.0
0.5924999999999994,0.0,0.0,0.0
0.5975000000000001,0.0,0.0,0.0
0.6025000000000009,0.0,0.0,0.0
0.6074999999999999,0.0,0.0,0.0
0.6125000000000007,0.0,0.0,0.0
0.6174999999999997,0.0,0.0,0.0
0.6225000000000005,0.0,0.0,0.0
0.6274999999999995,0.0,0.0,0.0
0.6325000000000003,0.0,0.0,0.0
0.6375000000000011,0.0,0.0,0.0
0.6425000000000001,0.0,0.0,0.0
0.6475000000000009,0.0,0.0,0.0
0.6524999999999999,0.0,0.0,0.0
0.6575000000000006,0.0,0.0,0.0
0.6624999999999996,0.0,0.0,0.0
0.6675000000000004,0.0,0.0,0.0
0.6724999999999994,0.0,0.0,0.0
0.6775000000000002,0.0,0.0,0.0
0.682500000000001,0.0,0.0,0.0
0.6875,0.0,0.0,0.0
0.6925000000000008,0.0,0.0,0.0
0.6974999999999998,0.0,0.0,0.0
0.7025000000000006,0.0,0.0,0.0
0.7074999999999996,0.0,0.0,0.0
0.7125000000000004,0.0,0.0,0.0
0.7174999999999994,0.0,0.0,0.0
0.7225000000000001,0.0,0.0,0.0
0.7275000000000009,0.0,0.0,0.0
0.7324999999999999,0.0,0.0,0.0
0.7375000000000007,0.0,0.0,0.0
0.7424999999999997,0.0,0.0,0.0
0.7475000000000005,0.0,0.0,0.0
0.7524999999999995,0.0,0.0,0.0
0.7575000000000003,0.0,0.0,0.0
0.7625000000000011,0.0,0.0,0.0
0.7675000000000001,0.0,0.0,0.0
0.7725000000000009,0.0,0.0,0.0
0.7774999999999999,0.0,0.0,0.0
0.7825000000000006,0.0,0.0,0.0
0.7874999999999996,0.0,0.0,0.0
0.7925000000000004,0.0,0.0,0.0
0.7974999999999994,0.0,0.0,0.0
0.8025000000000002,0.0,0.0,0.0
0.807500000000001,0.0,0.0,0.0
0.8125,0.0,0.0,0.0
0.8175000000000008,0.0,0.0,0.0
0.8224999999999998,0.0,0.0,0.0
0.8275000000000006,0.0,0.0,0.0
0.8324999999999996,0.0,0.0,0.0
0.8375000000000004,0.0,0.0,0.0
0.8424999999999994,0.0,0.0,0.0
0.8475000000000001,0.0,0.0,0.0
0.8525000000000009,0.0,0.0,0.0
0.8574999999999999,0.0,0.0,0.0
0.8625000000000007,0.0,0.0,0.0
0.8674999999999997,0.0,0.0,0.0
0.8725000000000005,0.0,0.0,0.0
0.8774999999999995,0.0,0.0,0.0
0.8825000000000003,0.0,0.0,0.0
0.8875000000000011,0.0,0.0,0.0
0.8925000000000001,0.0,0.0,0.0
0.8975000000000009,0.0,0.0,0.0
0.9024999999999999,0.0,0.0,0.0
0.9075000000000006,0.0,0.0,0.0
0.9124999999999996,0.0,0.0,0.0
0.9175000000000004,0.0,0.0,0.0
0.9224999999999994,0.0,0.0,0.0
0.9275000000000002,0.0,0.0,0.0
0.932500000000001,0.0,0.0,0.0
0.9375,0.0,0.0,0.0
0.9425000000000008,0.0,0.0,0.0
0.9474999999999998,0.0,0.0,0.0
0.9525000000000006,0.0,0.0,0.0
0.9574999999999996,0.0,0.0,0.0
0.9625000000000004,0.0,0.0,0.0
0.9674999999999994,0.0,0.0,0.0
0.9725000000000001,0.0,0.0,0.0
0.9775000000000009,0.0,0.0,0.0
0.9824999999999999,0.0,0.0,0.0
0.9875000000000007,0.0,0.0,0.0
0.9924999999999997,0.0,0.0,0.0
0.9975000000000005,0.0,0.0,0.0
1.0024999999999995,0.0,0.0,0.0
1.0075000000000003,0.0,0.0,0.0
1.012500000000001,0.0,0.0,0.0
1.0175,0.0,0.0,0.0
1.0225000000000009,0.0,0.0,0.0
1.0274999999999999,0.0,0.0,0.0
1.0325000000000006,0.0,0.0,0.0
1.0374999999999996,0.0,0.0,0.0
1.0425000000000004,0.0,0.0,0.0
1.0474999999999994,0.0,0.0,0.0
1.0525000000000002,0.0,0.0,0.0
1.057500000000001,0.0,0.0,0.0
1.0625,0.0,0.0,0.0
1.0675000000000008,0.0,0.0,0.0
1.0724999999999998,0.0,0.0,0.0
1.0775000000000006,0.0,0.0,0.0
1.0824999999999996,0.0,0.0,0.0
1.0875000000000004,0.0,0.0,0.0
1.0924999999999994,0.0,0.0,0.0
1.0975000000000001,0.0,0.0,0.0
1.102500000000001,0.0,0.0,0.0
1.1075,0.0,0.0,0.0
1.1125000000000007,0.0,0.0,0.0
1.1174999999999997,0.0,0.0,0.0
1.1225000000000005,0.0,0.0,0.0
1.1274999999999995,0.0,0.0,0.0
1.1325000000000003,0.0,0.0,0.0
1.137500000000001,0.0,0.0,0.0
1.1425,0.0,0.0,0.0
1.1475000000000009,0.0,0.0,0.0
1.1524999999999999,0.0,0.0,0.0
1.1575000000000006,0.0,0.0,0.0
1.1624999999999996,0.0,0.0,0.0
1.1675000000000004,0.0,0.0,0.0
1.1724999999999994,0.0,0.0,0.0
1.1775000000000002,0.0,0.0,0.0
1.182500000000001,0.0,0.0,0.0
1.1875,0.0,0.0,0.0
1.1925000000000008,0.0,0.0,0.0
1.1974999999999998,0.0,0.0,0.0
1.2025000000000006,0.0,0.0,0.0
1.2074999999999996,0.0,0.0,0.0
1.2125000000000004,0.0,0.0,0.0
1.2174999999999994,0.0,0.0,0.0
1.2225000000000001,0.0,0.0,0.0
1.227500000000001,0.0,0.0,0.0
1.2325,0.0,0.0,0.0
1.2375000000000007,0.0,0.0,0.0
1.2424999999999997,0.0,0.0,0.0
1.2475000000000005,0.0,0.0,0.0
1.2524999999999995,0.0,0.0,0.0
1.2575000000000003,0.0,0.0,0.0
1.262500000000001,0.0,0.0,0.0
1.2675,0.0,0.0,0.0
1.2725000000000009,0.0,0.0,0.0
1.2774999999999999,0.0,0.0,0.0
1.2825000000000006,0.0,0.0,0.0
1.2874999999999996,0.0,0.0,0.0
1.2925000000000004,0.0,0.0,0.0
1.2974999999999994,0.0,0.0,0.0
1.3025000000000002,0.0,0.0,0.0
1.307500000000001,0.0,0.0,0.0
1.3125,0.0,0.0,0.0
1.3175000000000008,0.0,0.0,0.0
1.3224999999999998,0.0,0.0,0.0
1.3275000000000006,0.0,0.0,0.0
1.3324999999999996,0.0,0.0,0.0
1.3375000000000004,0.0,0.0,0.0
1.3424999999999994,0.0,0.0,0.0
1.3475000000000001,0.0,0.0,0.0
1.352500000000001,0.0,0.0,0.0
1.3575,0.0,0.0,0.0
1.3625000000000007,0.0,0.0,0.0
1.3674999999999997,0.0,0.0,0.0
1.3725000000000005,0.0,0.0,0.0
1.3774999999999995,0.0,0.0,0.0
1.3825000000000003,0.0,0.0,0.0
1.387500000000001,0.0,0.0,0.0
1.3925,0.0,0.0,0.0
1.3975000000000009,0.0,0.0,0.0
1.4024999999999999,0.0,0.0,0.0
1.4075000000000006,0.0,0.0,0.0
1.4124999999999996,0.0,0.0,0.0
1.4175000000000004,0.0,0.0,0.0
1.4224999999999994,0.0,0.0,0.0
1.4275000000000002,0.0,0.0,0.0
1.432500000000001,0.0,0.0,0.0
1.4375,0.0,0.0,0.0
1.4425000000000008,0.0,0.0,0.0
1.4474999999999998,0.0,0.0,0.0
1.4525000000000006,0.0,0.0,0.0
1.4574999999999996,0.0,0.0,0.0
1.4625000000000004,0.0,0.0,0.0
1.4674999999999994,0.0,0.0,0.0
1.4725000000000001,0.0,0.0,0.0
1.477500000000001,0.0,0.0,0.0
1.4825,0.0,0.0,0.0
1.4875000000000007,0.0,0.0,0.0
1.4924999999999997,0.0,0.0,0.0
1.4975000000000005,0.0,0.0,0.0
1.5024999999999995,0.0,0.0,0.0
1.5075000000000003,0.0,0.0,0.0
1.512500000000001,0.0,0.0,0.0
1.5175,0.0,0.0,0.0
1.5225000000000009,0.0,0.0,0.0
1.5274999999999999,0.0,0.0,0.0
1.5325000000000006,0.0,0.0,0.0
1.5374999999999996,0.0,0.0,0.0
1.5425000000000004,0.0,0.0,0.0
1.5474999999999994,0.0,0.0,0.0
1.5525000000000002,0.0,0.0,0.0
1.557500000000001,0.0,0.0,0.0
1.5625,0.0,0.0,0.0
1.5675000000000008,0.0,0.0,0.0
1.5724999999999998,0.0,0.0,0.0
1.5775000000000006,0.0,0.0,0.0
1.5824999999999996,0.0,0.0,0.0
1.5875000000000004,0.0,0.0,0.0
1.5924999999999994,0.0,0.0,0.0
1.5975000000000001,0.0,0.0,0.0
1.602500000000001,0.0,0.0,0.0
1.6075,0.0012315043202071987,0.0012315043202071987,0.0
1.6125000000000007,0.008519999276535517,0.008519999276535517,0.0
1.6174999999999997,0.014124600570539707,0.014124600570539707,0.0
1.6225000000000005,0.013973804123167401,0.013973804123167401,0.0
1.6274999999999995,0.01228991046084327,0.01228991046084327,0.0
1.6325000000000003,0.010631149539747859,0.010631149539747859,0.0
1.637500000000001,0.014174866052997146,0.014174866052997146,0.0
1.6425,0.01957840541717159,0.01957840541717159,0.0
1.6475000000000009,0.013647078487194061,0.013647078487194061,0.0
1.6524999999999999,0.014677520877571515,0.014677520877571515,0.0
1.6575000000000006,0.015657697785491528,0.015657697785491528,0.0
1.6624999999999996,0.016286016316209486,0.016286016316209486,0.0
1.6675000000000004,0.01907575059259722,0.01907575059259722,0.0
1.6724999999999994,0.025183006711175775,0.025183006711175775,0.0
1.6775000000000002,0.023800705943596272,0.023800705943596272,0.0
1.682500000000001,0.030385484145520475,0.030385484145520475,0.0
1.6875,0.10241592050702726,0.10241592050702726,0.0
1.6925000000000008,0.4057178416552004,0.4057178416552004,0.0
1.6974999999999998,0.41725376987918217,0.41725376987918217,0.0
1.7025000000000006,0.07801202877394174,0.07801202877394174,0.0
