omega,S,S_edge,S_cont,Sr,Sr_edge,Sr_cont
-1.4875000000000007,0.0,0.0,0.0
-1.4825,0.0077597338543667896,0.0077597338543667896,0.0
-1.4774999999999991,0.019132299260361845,0.019132299260361845,0.0
-1.4725000000000001,0.0806760993441859,0.0806760993441859,0.0
-1.4674999999999994,0.1825579491001029,0.1825579491001029,0.0
-1.4625000000000004,0.3752318265447649,0.3752318265447649,0.0
-1.4574999999999996,0.6552419797592232,0.6552419797592232,0.0
-1.4525000000000006,0.9601335467901126,0.9601335467901126,0.0
-1.4474999999999998,1.303164048635582,1.303164048635582,0.0
-1.442499999999999,1.539034825067104,1.539034825067104,0.0
-1.4375,1.7529144529234972,1.7529144529234972,0.0
-1.4324999999999992,1.8257051547071723,1.8257051547071723,0.0
-1.4275000000000002,1.7695648939875228,1.7695648939875228,0.0
-1.4224999999999994,1.523955180329873,1.523955180329873,0.0
-1.4175000000000004,1.3119919239921694,1.3119919239921694,0.0
-1.4124999999999996,1.1600645032645671,1.1600645032645671,0.0
-1.4075000000000006,1.0466215925434397,1.0466215925434397,0.0
-1.4024999999999999,0.9589711575082843,0.9589711575082843,0.0
-1.397499999999999,0.9180990370850811,0.9180990370850811,0.0
-1.3925,0.8442087778726493,0.8442087778726493,0.0
-1.3874999999999993,0.813169842455182,0.813169842455182,0.0
-1.3825000000000003,0.768873386039566,0.768873386039566,0.0
-1.3774999999999995,0.7562441835721351,0.7562441835721351,0.0
-1.3725000000000005,0.7053503825839805,0.7053503825839805,0.0
-1.3674999999999997,0.6998840113667342,0.6998840113667342,0.0
-1.362499999999999,0.6720180845293927,0.6720180845293927,0.0
-1.3575,0.6474822459048563,0.6474822459048563,0.0
-1.3524999999999991,0.6420472906141461,0.6420472906141461,0.0
-1.3475000000000001,0.5907450825810248,0.5907450825810248,0.0
-1.3424999999999994,0.6273760529218818,0.6273760529218818,0.0
-1.3375000000000004,0.5818229594448298,0.5818229594448298,0.0
-1.3324999999999996,0.5410450868012342,0.5410450868012342,0.0
-1.3275000000000006,0.6230720709864638,0.6230720709864638,0.0
-1.3224999999999998,0.511891106975921,0.511891106975921,0.0
-1.317499999999999,0.522949513116557,0.522949513116557,0.0
-1.3125,0.5785557030850963,0.5785557030850963,0.0
-1.3074999999999992,0.5022150016028644,0.5022150016028644,0.0
-1.3025000000000002,0.4854388968326949,0.4854388968326949,0.0
-1.2974999999999994,0.5357043792901315,0.5357043792901315,0.0
-1.2925000000000004,0.507587125040503,0.507587125040503,0.0
-1.2874999999999996,0.43800084776348913,0.43800084776348913,0.0
-1.2825000000000006,0.5161008411317312,0.5161008411317312,0.0
-1.2774999999999999,0.48678978167373854,0.48678978167373854,0.0
-1.272499999999999,0.43862916629420695,0.43862916629420695,0.0
-1.2675,0.47334376511637416,0.47334376511637416,0.0
-1.2624999999999993,0.45933226188136367,0.45933226188136367,0.0
-1.2575000000000003,0.4473313779446506,0.4473313779446506,0.0
-1.2524999999999995,0.44013713076793,0.44013713076793,0.0
-1.2475000000000005,0.4419278385804762,0.4419278385804762,0.0
-1.2424999999999997,0.43888049370649423,0.43888049370649423,0.0
-1.237499999999999,0.4221986367159322,0.4221986367159322,0.0
-1.2325,0.4262198753125273,0.4262198753125273,0.0
-1.2274999999999991,0.429078724627294,0.429078724627294,0.0
-1.2225000000000001,0.4154442125107143,0.4154442125107143,0.0
-1.2174999999999994,0.3943641258051267,0.3943641258051267,0.0
-1.2125000000000004,0.41418757544927837,0.41418757544927837,0.0
-1.2074999999999996,0.4122397880040528,0.4122397880040528,0.0
-1.2025000000000006,0.4005216474061628,0.4005216474061628,0.0
-1.1974999999999998,0.37991279959861374,0.37991279959861374,0.0
-1.192499999999999,0.3938300550540165,0.3938300550540165,0.0
-1.1875,0.40994642536693215,0.40994642536693215,0.0
-1.1824999999999992,0.3777451006676368,0.3777451006676368,0.0
-1.1775000000000002,0.36027784551367753,0.36027784551367753,0.0
-1.1724999999999994,0.37419510096908026,0.37419510096908026,0.0
-1.1675000000000004,0.4194968670338451,0.4194968670338451,0.0
-1.1624999999999996,0.36640395118817765,0.36640395118817765,0.0
-1.1575000000000006,0.3343597061215618,0.3343597061215618,0.0
-1.1524999999999999,0.34268492665357464,0.34268492665357464,0.0
-1.147499999999999,0.4251831497368426,0.4251831497368426,0.0
-1.1425,0.373692446144506,0.373692446144506,0.0
-1.1374999999999993,0.3112061682646049,0.3112061682646049,0.0
-1.1325000000000003,0.31745793764524866,0.31745793764524866,0.0
-1.1274999999999995,0.4039773993251114,0.4039773993251114,0.0
-1.1225000000000005,0.38660439195076,0.38660439195076,0.0
-1.1174999999999997,0.3200968754742641,0.3200968754742641,0.0
-1.112499999999999,0.30891280562748435,0.30891280562748435,0.0
-1.1075,0.33492519279920785,0.33492519279920785,0.0
-1.1024999999999991,0.4088782838647116,0.4088782838647116,0.0
-1.0975000000000001,0.33740705099554386,0.33740705099554386,0.0
-1.0924999999999994,0.3005247532423997,0.3005247532423997,0.0
-1.0875000000000004,0.31117475233806907,0.31117475233806907,0.0
-1.0824999999999996,0.3421508559024644,0.3421508559024644,0.0
-1.0775000000000006,0.38716987862840613,0.38716987862840613,0.0
-1.0724999999999998,0.30621103594539717,0.30621103594539717,0.0
-1.067499999999999,0.3145362564774101,0.3145362564774101,0.0
-1.0625,0.29263935568188926,0.29263935568188926,0.0
-1.0574999999999992,0.3348623609461362,0.3348623609461362,0.0
-1.0525000000000002,0.3630424470488366,0.3630424470488366,0.0
-1.0474999999999994,0.2952154616578329,0.2952154616578329,0.0
-1.0425000000000004,0.34365882037618756,0.34365882037618756,0.0
-1.0374999999999996,0.27997873728792244,0.27997873728792244,0.0
-1.0325000000000006,0.30366634589598945,0.30366634589598945,0.0
-1.0274999999999999,0.33891501546926694,0.33891501546926694,0.0
-1.022499999999999,0.2992367002544279,0.2992367002544279,0.0
-1.0175,0.3569163413743364,0.3569163413743364,0.0
-1.0124999999999993,0.28440838292948406,0.28440838292948406,0.0
-1.0075000000000003,0.257013694990181,0.257013694990181,0.0
-1.0024999999999995,0.3184946632209333,0.3184946632209333,0.0
-0.9975000000000005,0.31585572539191786,0.31585572539191786,0.0
-0.9924999999999997,0.3575132439785186,0.3575132439785186,0.0
-0.9874999999999989,0.30508006259010484,0.30508006259010484,0.0
-0.9824999999999999,0.22456104287859843,0.22456104287859843,0.0
-0.9774999999999991,0.2715906849028376,0.2715906849028376,0.0
-0.9725000000000001,0.3199083799150487,0.3199083799150487,0.0
-0.9674999999999994,0.35704200508048,0.35704200508048,0.0
-0.9625000000000004,0.3460778467194517,0.3460778467194517,0.0
-0.9574999999999996,0.2220477687557266,0.2220477687557266,0.0
-0.9525000000000006,0.2098898051863341,0.2098898051863341,0.0
-0.9474999999999998,0.2910685593550944,0.2910685593550944,0.0
-0.942499999999999,0.3543088194718569,0.3543088194718569,0.0
-0.9375,0.3839026222686727,0.3839026222686727,0.0
-0.9324999999999992,0.2660614818325196,0.2660614818325196,0.0
-0.9275000000000002,0.1719393659309694,0.1719393659309694,0.0
-0.9224999999999994,0.23602785606420118,0.23602785606420118,0.0
-0.9175000000000004,0.30702785003533056,0.30702785003533056,0.0
-0.9124999999999996,0.37620572026737775,0.37620572026737775,0.0
-0.9075000000000006,0.37868757846371376,0.37868757846371376,0.0
-0.9024999999999999,0.18438007283918498,0.18438007283918498,0.0
-0.8974999999999991,0.16706989731790522,0.16706989731790522,0.0
-0.8925000000000001,0.25761059759436306,0.25761059759436306,0.0
-0.8874999999999993,0.3220760788460256,0.3220760788460256,0.0
-0.8825000000000003,0.41688934513136555,0.41688934513136555,0.0
-0.8774999999999995,0.3107663452931024,0.3107663452931024,0.0
-0.8725000000000005,0.14064910310121503,0.14064910310121503,0.0
-0.8674999999999997,0.18924954145224915,0.18924954145224915,0.0
-0.8624999999999989,0.2563853764594631,0.2563853764594631,0.0
-0.8574999999999999,0.33313448498666176,0.33313448498666176,0.0
-0.8524999999999991,0.43661854699590946,0.43661854699590946,0.0
-0.8475000000000001,0.24689776664562194,0.24689776664562194,0.0
-0.8424999999999994,0.1323238825692021,0.1323238825692021,0.0
-0.8375000000000004,0.19097741741172355,0.19097741741172355,0.0
-0.8324999999999996,0.2598725443049477,0.2598725443049477,0.0
-0.8275000000000006,0.35283227092466973,0.35283227092466973,0.0
-0.8224999999999998,0.41255394726941164,0.41255394726941164,0.0
-0.817499999999999,0.2274198921933652,0.2274198921933652,0.0
-0.8125,0.13182122774462773,0.13182122774462773,0.0
-0.8074999999999992,0.18585662138637218,0.18585662138637218,0.0
-0.8025000000000002,0.2556628101491374,0.2556628101491374,0.0
-0.7974999999999994,0.3704251897847725,0.3704251897847725,0.0
-0.7925000000000004,0.37372386207104186,0.37372386207104186,0.0
-0.7874999999999996,0.2315982104226396,0.2315982104226396,0.0
-0.7825000000000006,0.14112034199925352,0.14112034199925352,0.0
-0.7774999999999999,0.1734473304046925,0.1734473304046925,0.0
-0.7724999999999991,0.23257210414525248,0.23257210414525248,0.0
-0.7675000000000001,0.3675349245434699,0.3675349245434699,0.0
-0.7624999999999993,0.3822375781622702,0.3822375781622702,0.0
-0.7575000000000003,0.22961900705087807,0.22961900705087807,0.0
-0.7524999999999995,0.15528892486694348,0.15528892486694348,0.0
-0.7475000000000005,0.15984423421464872,0.15984423421464872,0.0
-0.7424999999999997,0.20018228388674164,0.20018228388674164,0.0
-0.7374999999999989,0.3270712111652334,0.3270712111652334,0.0
-0.7324999999999999,0.42640837087174266,0.42640837087174266,0.0
-0.7274999999999991,0.2360592719907371,0.2360592719907371,0.0
-0.7225000000000001,0.1658132602564693,0.1658132602564693,0.0
-0.7174999999999994,0.15865042900628457,0.15865042900628457,0.0
-0.7125000000000004,0.17024290589803093,0.17024290589803093,0.0
-0.7074999999999996,0.26989422486989917,0.26989422486989917,0.0
-0.7025000000000006,0.4204393448299221,0.4204393448299221,0.0
-0.6974999999999998,0.3013101514057971,0.3013101514057971,0.0
-0.692499999999999,0.1793535245934413,0.1793535245934413,0.0
-0.6875,0.15767653528367176,0.15767653528367176,0.0
-0.6824999999999992,0.15023096069466393,0.15023096069466393,0.0
-0.6775000000000002,0.19546989490635694,0.19546989490635694,0.0
-0.6724999999999994,0.3499420056833672,0.3499420056833672,0.0
-0.6675000000000004,0.41745483180901183,0.41745483180901183,0.0
-0.6624999999999996,0.21067520334973158,0.21067520334973158,0.0
-0.6575000000000006,0.1598442342146487,0.1598442342146487,0.0
-0.6524999999999999,0.1433508727833023,0.1433508727833023,0.0
-0.6474999999999991,0.14677520877571515,0.14677520877571515,0.0
-0.6425000000000001,0.2516101556260066,0.2516101556260066,0.0
-0.6374999999999993,0.40005040850812423,0.40005040850812423,0.0
-0.6325000000000003,0.3422451036820721,0.3422451036820721,0.0
-0.6274999999999995,0.18481989581068756,0.18481989581068756,0.0
-0.6225000000000005,0.16663007434640265,0.16663007434640265,0.0
-0.6174999999999997,0.09804910671853746,0.09804910671853746,0.0
-0.6124999999999989,0.17030573775110266,0.17030573775110266,0.0
-0.6074999999999999,0.28635617037470973,0.28635617037470973,0.0
-0.6024999999999991,0.4267539460636376,0.4267539460636376,0.0
-0.5975000000000001,0.2857592677705276,0.2857592677705276,0.0
-0.5924999999999994,0.1860451169455876,0.1860451169455876,0.0
-0.5875000000000004,0.13354910370410214,0.13354910370410214,0.0
-0.5824999999999996,0.08809025800665782,0.08809025800665782,0.0
-0.5775000000000006,0.1857937895333004,0.1857937895333004,0.0
-0.5724999999999998,0.2980743109725996,0.2980743109725996,0.0
-0.567499999999999,0.4336654499015351,0.4336654499015351,0.0
-0.5625,0.27818802947537624,0.27818802947537624,0.0
-0.5574999999999992,0.18516547100258246,0.18516547100258246,0.0
-0.5525000000000002,0.10329556645003242,0.10329556645003242,0.0
-0.5474999999999994,0.08259247086287567,0.08259247086287567,0.0
-0.5425000000000004,0.17749998492782332,0.17749998492782332,0.0
-0.5374999999999996,0.30300661143873553,0.30300661143873553,0.0
-0.5325000000000006,0.429989786496835,0.429989786496835,0.0
-0.5274999999999999,0.31174023901571524,0.31174023901571524,0.0
-0.5224999999999991,0.16562476469725393,0.16562476469725393,0.0
-0.5175000000000001,0.0944362751669092,0.0944362751669092,0.0
-0.5124999999999993,0.0702460117342678,0.0702460117342678,0.0
-0.5075000000000003,0.15104777478459727,0.15104777478459727,0.0
-0.5024999999999995,0.29486988646593804,0.29486988646593804,0.0
-0.4975000000000005,0.4202822651972426,0.4202822651972426,0.0
-0.4924999999999997,0.36363934965301864,0.36363934965301864,0.0
-0.48749999999999893,0.16040972089229488,0.16040972089229488,0.0
-0.48249999999999993,0.10266724791931445,0.10266724791931445,0.0
-0.47749999999999915,0.05554335811546756,0.05554335811546756,0.0
-0.47250000000000014,0.10797653950388121,0.10797653950388121,0.0
-0.46749999999999936,0.2723132512131633,0.2723132512131633,0.0
-0.46250000000000036,0.3930132409640832,0.3930132409640832,0.0
-0.4574999999999996,0.4159468673352886,0.4159468673352886,0.0
-0.45250000000000057,0.19867431941301855,0.19867431941301855,0.0
-0.4474999999999998,0.11243760107197873,0.11243760107197873,0.0
-0.442499999999999,0.05749114556069323,0.05749114556069323,0.0
-0.4375,0.06408849013323178,0.06408849013323178,0.0
-0.4324999999999992,0.19377343487341847,0.19377343487341847,0.0
-0.4275000000000002,0.378279171418747,0.378279171418747,0.0
-0.42249999999999943,0.4233924419242965,0.4233924419242965,0.0
-0.4175000000000004,0.2965035146458047,0.2965035146458047,0.0
-0.41249999999999964,0.13122432514044569,0.13122432514044569,0.0
-0.40750000000000064,0.06895795874629597,0.06895795874629597,0.0
-0.40249999999999986,0.0411862796885622,0.0411862796885622,0.0
-0.3974999999999991,0.10235308865395548,0.10235308865395548,0.0
-0.39250000000000007,0.31032652232159985,0.31032652232159985,0.0
-0.3874999999999993,0.40762164680327573,0.40762164680327573,0.0
-0.3825000000000003,0.3920707631680063,0.3920707631680063,0.0
-0.3774999999999995,0.20354378802608275,0.20354378802608275,0.0
-0.3725000000000005,0.09855176154311182,0.09855176154311182,0.0
-0.3674999999999997,0.030473448739820996,0.030473448739820996,0.0
-0.36249999999999893,0.05123937618004954,0.05123937618004954,0.0
-0.35749999999999993,0.17244202075554377,0.17244202075554377,0.0
-0.35249999999999915,0.3814207640723368,0.3814207640723368,0.0
-0.34750000000000014,0.3956207628665627,0.3956207628665627,0.0
-0.34249999999999936,0.3506331560671569,0.3506331560671569,0.0
-0.33750000000000036,0.15057653588655884,0.15057653588655884,0.0
-0.3324999999999996,0.055983181086970125,0.055983181086970125,0.0
-0.32750000000000057,0.02356194490192345,0.02356194490192345,0.0
-0.3224999999999998,0.08017344451961153,0.08017344451961153,0.0
-0.317499999999999,0.23181812190839088,0.23181812190839088,0.0
-0.3125,0.39524377174813186,0.39524377174813186,0.0
-0.3074999999999992,0.37796501215338807,0.37796501215338807,0.0
-0.3025000000000002,0.3153844864938794,0.3153844864938794,0.0
-0.29749999999999943,0.1277057413684251,0.1277057413684251,0.0
-0.2925000000000004,0.0258238916125081,0.0258238916125081,0.0
-0.28749999999999964,0.024096015653033712,0.024096015653033712,0.0
-0.28250000000000064,0.11630176003589417,0.11630176003589417,0.0
-0.27749999999999986,0.2517044034056143,0.2517044034056143,0.0
-0.2724999999999991,0.3820490826030548,0.3820490826030548,0.0
-0.26750000000000007,0.37026811015209304,0.37026811015209304,0.0
-0.2624999999999993,0.31865174285361275,0.31865174285361275,0.0
-0.2575000000000003,0.09792344301239386,0.09792344301239386,0.0
-0.2524999999999995,0.011498229112138646,0.011498229112138646,0.0
-0.2475000000000005,0.035154421793669795,0.035154421793669795,0.0
-0.24249999999999972,0.12889954657678926,0.12889954657678926,0.0
-0.23749999999999893,0.25943272133344514,0.25943272133344514,0.0
-0.23249999999999993,0.346894660809385,0.346894660809385,0.0
-0.22749999999999915,0.37840483512489065,0.37840483512489065,0.0
-0.22250000000000014,0.33297740535398224,0.33297740535398224,0.0
-0.21749999999999936,0.0837548601447039,0.0837548601447039,0.0
-0.21250000000000036,0.007539822368615506,0.007539822368615506,0.0
-0.20749999999999957,0.038547341859546766,0.038547341859546766,0.0
-0.20250000000000057,0.12855397138489436,0.12855397138489436,0.0
-0.1974999999999998,0.24488714734732442,0.24488714734732442,0.0
-0.192499999999999,0.3106092656604229,0.3106092656604229,0.0
-0.1875,0.3942070461724473,0.3942070461724473,0.0
-0.18249999999999922,0.35836147399498774,0.35836147399498774,0.0
-0.1775000000000002,0.08878140839044758,0.08878140839044758,0.0
-0.17249999999999943,0.007319910882864221,0.007319910882864221,0.0
-0.16750000000000043,0.03565707661824416,0.03565707661824416,0.0
-0.16249999999999964,0.11906636157105316,0.11906636157105316,0.0
-0.15750000000000064,0.2101097166720854,0.2101097166720854,0.0
-0.15249999999999986,0.29179112566542004,0.29179112566542004,0.0
-0.14749999999999908,0.38694996714265484,0.38694996714265484,0.0
-0.14250000000000007,0.3823946577949497,0.3823946577949497,0.0
-0.1374999999999993,0.13518273188396882,0.13518273188396882,0.0
-0.13250000000000028,0.00898495498926681,0.00898495498926681,0.0
-0.1274999999999995,0.02912256389877738,0.02912256389877738,0.0
-0.1225000000000005,0.09688671743670925,0.09688671743670925,0.0
-0.11749999999999972,0.18224378983474393,0.18224378983474393,0.0
-0.11249999999999893,0.2572964383290041,0.2572964383290041,0.0
-0.10749999999999993,0.3636393496530186,0.3636393496530186,0.0
-0.10249999999999915,0.38393403819520866,0.38393403819520866,0.0
-0.09750000000000014,0.2337344934270807,0.2337344934270807,0.0
-0.09249999999999936,0.02145707782401829,0.02145707782401829,0.0
-0.08750000000000036,0.019634954084936214,0.019634954084936214,0.0
-0.08249999999999957,0.06807831280329082,0.06807831280329082,0.0
-0.07750000000000057,0.14891149178015622,0.14891149178015622,0.0
-0.07249999999999979,0.21127210595391363,0.21127210595391363,0.0
-0.067499999999999,0.3334486442520207,0.3334486442520207,0.0
-0.0625,0.3697340394009829,0.3697340394009829,0.0
-0.05749999999999922,0.3263800607814436,0.3263800607814436,0.0
-0.05250000000000021,0.08384910792431159,0.08384910792431159,0.0
-0.04749999999999943,0.016336281798666925,0.016336281798666925,0.0
-0.042500000000000426,0.04938583651443156,0.04938583651443156,0.0
-0.037499999999999645,0.08805884208012191,0.08805884208012191,0.0
-0.03250000000000064,0.19104024926479538,0.19104024926479538,0.0
-0.027499999999999858,0.2575477657412913,0.2575477657412913,0.0
-0.022499999999999076,0.37454067616097525,0.37454067616097525,0.0
-0.01750000000000007,0.3407999710614208,0.3407999710614208,0.0
-0.01249999999999929,0.21947166277978294,0.21947166277978294,0.0
-0.007500000000000284,0.0364110588551057,0.0364110588551057,0.0
-0.0024999999999995026,0.029311059457992773,0.029311059457992773,0.0
0.0024999999999995026,0.06100972933271381,0.06100972933271381,0.0
0.007500000000000284,0.12063715789784807,0.12063715789784807,0.0
0.012500000000001066,0.2192517512940317,0.2192517512940317,0.0
0.01750000000000007,0.2974774083684176,0.2974774083684176,0.0
0.022500000000000853,0.3561937750640108,0.3561937750640108,0.0
0.027499999999999858,0.32041103473962307,0.32041103473962307,0.0
0.03250000000000064,0.14090043051350226,0.14090043051350226,0.0
0.037499999999999645,0.0288084046334184,0.0288084046334184,0.0
0.042500000000000426,0.03568849254478006,0.03568849254478006,0.0
0.04749999999999943,0.0685181357747934,0.0685181357747934,0.0
0.05250000000000021,0.1416544127503638,0.1416544127503638,0.0
0.057500000000000995,0.24369334213896024,0.24369334213896024,0.0
0.0625,0.31893448619243586,0.31893448619243586,0.0
0.06750000000000078,0.3383495287916208,0.3383495287916208,0.0
0.07249999999999979,0.2828375866026891,0.2828375866026891,0.0
0.07750000000000057,0.10967299953681968,0.10967299953681968,0.0
0.08249999999999957,0.033018138789228726,0.033018138789228726,0.0
0.08750000000000036,0.036568138487785194,0.036568138487785194,0.0
0.09249999999999936,0.07539822368615505,0.07539822368615505,0.0
0.09750000000000014,0.1448902531835613,0.1448902531835613,0.0
0.10250000000000092,0.2547517482795964,0.2547517482795964,0.0
0.10749999999999993,0.3132482034894383,0.3132482034894383,0.0
