omega,S,S_edge,S_cont,Sr,Sr_edge,Sr_cont
-1.4924999999999997,0.0,0.0,0.0
-1.4875000000000007,0.0006220353454107791,0.0006220353454107791,0.0
-1.4825,0.0049103093175608455,0.0049103093175608455,0.0
-1.4774999999999991,0.021865484868984965,0.021865484868984965,0.0
-1.4725000000000001,0.06150610097198097,0.06150610097198097,0.0
-1.4674999999999994,0.12264463560349195,0.12264463560349195,0.0
-1.4625000000000004,0.2100406016337065,0.2100406016337065,0.0
-1.4574999999999996,0.3999216032093273,0.3999216032093273,0.0
-1.4525000000000006,0.740325733596396,0.740325733596396,0.0
-1.4474999999999998,1.1833939703101204,1.1833939703101204,0.0
-1.442499999999999,1.6182343758640887,1.6182343758640887,0.0
-1.4375,1.9689869124520747,1.9689869124520747,0.0
-1.4324999999999992,1.9797688584391948,1.9797688584391948,0.0
-1.4275000000000002,1.6994665371079587,1.6994665371079587,0.0
-1.4224999999999994,1.4013231110969862,1.4013231110969862,0.0
-1.4175000000000004,1.204524322498165,1.204524322498165,0.0
-1.4124999999999996,1.075404864435627,1.075404864435627,0.0
-1.4075000000000006,0.987132394055063,0.987132394055063,0.0
-1.4024999999999999,0.9157020018903923,0.9157020018903923,0.0
-1.397499999999999,0.8598978915846772,0.8598978915846772,0.0
-1.3925,0.8134525857940059,0.8134525857940059,0.0
-1.3874999999999993,0.7752916598308506,0.7752916598308506,0.0
-1.3825000000000003,0.7380355125519292,0.7380355125519292,0.0
-1.3774999999999995,0.7099308246729149,0.7099308246729149,0.0
-1.3725000000000005,0.6798280838662174,0.6798280838662174,0.0
-1.3674999999999997,0.657491360099194,0.657491360099194,0.0
-1.362499999999999,0.6347305213239359,0.6347305213239359,0.0
-1.3575,0.6145614964878894,0.6145614964878894,0.0
-1.3524999999999991,0.5955894184528606,0.5955894184528606,0.0
-1.3475000000000001,0.5781724287813588,0.5781724287813588,0.0
-1.3424999999999994,0.5657034475392609,0.5657034475392609,0.0
-1.3375000000000004,0.5479754401950537,0.5479754401950537,0.0
-1.3324999999999996,0.5351106182786036,0.5351106182786036,0.0
-1.3275000000000006,0.5218122565759579,0.5218122565759579,0.0
-1.3224999999999998,0.5109266380312691,0.5109266380312691,0.0
-1.317499999999999,0.4986838514602297,0.4986838514602297,0.0
-1.3125,0.4886087638201672,0.4886087638201672,0.0
-1.3074999999999992,0.4782980567310856,0.4782980567310856,0.0
-1.3025000000000002,0.46905234955157077,0.46905234955157077,0.0
-1.2974999999999994,0.46014593437864365,0.46014593437864365,0.0
-1.2925000000000004,0.45305850135214515,0.45305850135214515,0.0
-1.2874999999999996,0.44465159941113874,0.44465159941113874,0.0
-1.2825000000000006,0.4362729718040148,0.4362729718040148,0.0
-1.2774999999999999,0.42709323807022553,0.42709323807022553,0.0
-1.272499999999999,0.41906332724764994,0.41906332724764994,0.0
-1.2675,0.4118156729958183,0.4118156729958183,0.0
-1.2624999999999993,0.40767819547104067,0.40767819547104067,0.0
-1.2575000000000003,0.4012599216797567,0.4012599216797567,0.0
-1.2524999999999995,0.3970658954872142,0.3970658954872142,0.0
-1.2475000000000005,0.3902894801334211,0.3902894801334211,0.0
-1.2424999999999997,0.3822972684226887,0.3822972684226887,0.0
-1.237499999999999,0.37275939312639006,0.37275939312639006,0.0
-1.2325,0.3730986851329778,0.3730986851329778,0.0
-1.2274999999999991,0.3724106763418416,0.3724106763418416,0.0
-1.2225000000000001,0.36276912848797455,0.36276912848797455,0.0
-1.2174999999999994,0.3529862089646958,0.3529862089646958,0.0
-1.2125000000000004,0.35547435034633895,0.35547435034633895,0.0
-1.2074999999999996,0.35037554546956273,0.35037554546956273,0.0
-1.2025000000000006,0.34424001501710183,0.34424001501710183,0.0
-1.1974999999999998,0.3361252811928793,0.3361252811928793,0.0
-1.192499999999999,0.3402156348278533,0.3402156348278533,0.0
-1.1875,0.3323270956746893,0.3323270956746893,0.0
-1.1824999999999992,0.3253810343176022,0.3253810343176022,0.0
-1.1775000000000002,0.3254658573192491,0.3254658573192491,0.0
-1.1724999999999994,0.3237693972863106,0.3237693972863106,0.0
-1.1675000000000004,0.31436346888146277,0.31436346888146277,0.0
-1.1624999999999996,0.31527767234365733,0.31527767234365733,0.0
-1.1575000000000006,0.31275183185017125,0.31275183185017125,0.0
-1.1524999999999999,0.30263904509826567,0.30263904509826567,0.0
-1.147499999999999,0.30922696489284346,0.30922696489284346,0.0
-1.1425,0.2977004614468225,0.2977004614468225,0.0
-1.1374999999999993,0.2968899305421963,0.2968899305421963,0.0
-1.1325000000000003,0.3009614346212487,0.3009614346212487,0.0
-1.1274999999999995,0.2849204625320192,0.2849204625320192,0.0
-1.1225000000000005,0.293676081257574,0.293676081257574,0.0
-1.1174999999999997,0.2861645332228408,0.2861645332228408,0.0
-1.112499999999999,0.27882263119140144,0.27882263119140144,0.0
-1.1075,0.28904851527883624,0.28904851527883624,0.0
-1.1024999999999991,0.27189541939023587,0.27189541939023587,0.0
-1.0975000000000001,0.27951063998253756,0.27951063998253756,0.0
-1.0924999999999994,0.26979369390498437,0.26979369390498437,0.0
-1.0875000000000004,0.271810596388589,0.271810596388589,0.0
-1.0824999999999996,0.2714901539379228,0.2714901539379228,0.0
-1.0775000000000006,0.2607930309524496,0.2607930309524496,0.0
-1.0724999999999998,0.27134878226851133,0.27134878226851133,0.0
-1.067499999999999,0.25117975743246485,0.25117975743246485,0.0
-1.0625,0.2695109505661613,0.2695109505661613,0.0
-1.0574999999999992,0.24704227990768704,0.24704227990768704,0.0
-1.0525000000000002,0.2647702872518943,0.2647702872518943,0.0
-1.0474999999999994,0.24632599678266862,0.24632599678266862,0.0
-1.0425000000000004,0.25607121719410414,0.25607121719410414,0.0
-1.0374999999999996,0.24724962502282402,0.24724962502282402,0.0
-1.0325000000000006,0.24757949225145096,0.24757949225145096,0.0
-1.0274999999999999,0.2457699348829832,0.2457699348829832,0.0
-1.022499999999999,0.2403318379996193,0.2403318379996193,0.0
-1.0175,0.24394152795859395,0.24394152795859395,0.0
-1.0124999999999993,0.2349691393399415,0.2349691393399415,0.0
-1.0075000000000003,0.24076537778581472,0.24076537778581472,0.0
-1.0024999999999995,0.23195321039249528,0.23195321039249528,0.0
-0.9975000000000005,0.23718396216072232,0.23718396216072232,0.0
-0.9924999999999997,0.2295216176786168,0.2295216176786168,0.0
-0.9874999999999989,0.2328014404089646,0.2328014404089646,0.0
-0.9824999999999999,0.22747644086112984,0.22747644086112984,0.0
-0.9774999999999991,0.22902210444669607,0.22902210444669607,0.0
-0.9725000000000001,0.2244793614696052,0.2244793614696052,0.0
-0.9674999999999994,0.2264302905074845,0.2264302905074845,0.0
-0.9625000000000004,0.21819303456977204,0.21819303456977204,0.0
-0.9574999999999996,0.2260909985008968,0.2260909985008968,0.0
-0.9525000000000006,0.2124156456798204,0.2124156456798204,0.0
-0.9474999999999998,0.22660936128873913,0.22660936128873913,0.0
-0.942499999999999,0.2064026373408496,0.2064026373408496,0.0
-0.9375,0.22810790098450137,0.22810790098450137,0.0
-0.9324999999999992,0.20266100049042413,0.20266100049042413,0.0
-0.9275000000000002,0.22061520250568972,0.22061520250568972,0.0
-0.9224999999999994,0.20673250456947648,0.20673250456947648,0.0
-0.9175000000000004,0.20796715048233722,0.20796715048233722,0.0
-0.9124999999999996,0.2125193182373889,0.2125193182373889,0.0
-0.9075000000000006,0.1980334345116863,0.1980334345116863,0.0
-0.9024999999999999,0.2180045390105567,0.2180045390105567,0.0
-0.8974999999999991,0.18817511676472157,0.18817511676472157,0.0
-0.8925000000000001,0.22218914042513824,0.22218914042513824,0.0
-0.8874999999999993,0.18788294864793773,0.18788294864793773,0.0
-0.8825000000000003,0.20992750429817728,0.20992750429817728,0.0
-0.8774999999999995,0.19522485067937703,0.19522485067937703,0.0
-0.8725000000000005,0.19445201888659397,0.19445201888659397,0.0
-0.8674999999999997,0.2084855132701796,0.2084855132701796,0.0
-0.8624999999999989,0.18008865727438142,0.18008865727438142,0.0
-0.8574999999999999,0.2128114863541727,0.2128114863541727,0.0
-0.8524999999999991,0.17742144511148364,0.17742144511148364,0.0
-0.8475000000000001,0.20227458459403255,0.20227458459403255,0.0
-0.8424999999999994,0.19173768283389234,0.19173768283389234,0.0
-0.8375000000000004,0.18351927645210148,0.18351927645210148,0.0
-0.8324999999999996,0.20202011558909178,0.20202011558909178,0.0
-0.8275000000000006,0.17300122424788283,0.17300122424788283,0.0
-0.8224999999999998,0.19941887687191948,0.19941887687191948,0.0
-0.817499999999999,0.17997555993885217,0.17997555993885217,0.0
-0.8125,0.18550790460182381,0.18550790460182381,0.0
-0.8074999999999992,0.19272728451977314,0.19272728451977314,0.0
-0.8025000000000002,0.1710502952100036,0.1710502952100036,0.0
-0.7974999999999994,0.19373573576157546,0.19373573576157546,0.0
-0.7925000000000004,0.1731331711393336,0.1731331711393336,0.0
-0.7874999999999996,0.1832365331132784,0.1832365331132784,0.0
-0.7825000000000006,0.1854796302679415,0.1854796302679415,0.0
-0.7774999999999999,0.1682322865997335,0.1682322865997335,0.0
-0.7724999999999991,0.18914586889468082,0.18914586889468082,0.0
-0.7675000000000001,0.16873179983165426,0.16873179983165426,0.0
-0.7624999999999993,0.17562131252097674,0.17562131252097674,0.0
-0.7575000000000003,0.1845842763616684,0.1845842763616684,0.0
-0.7524999999999995,0.16340680028381957,0.16340680028381957,0.0
-0.7475000000000005,0.1790802060325791,0.1790802060325791,0.0
-0.7424999999999997,0.17332166669854898,0.17332166669854898,0.0
-0.7374999999999989,0.1671295875783235,0.1671295875783235,0.0
-0.7324999999999999,0.17936294937140218,0.17936294937140218,0.0
-0.7274999999999991,0.16328427817032953,0.16328427817032953,0.0
-0.7225000000000001,0.17134246332678743,0.17134246332678743,0.0
-0.7174999999999994,0.17425471971666515,0.17425471971666515,0.0
-0.7125000000000004,0.15864728741363102,0.15864728741363102,0.0
-0.7074999999999996,0.17130476421494434,0.17130476421494434,0.0
-0.7025000000000006,0.1696460032938489,0.1696460032938489,0.0
-0.6974999999999998,0.1617763136966065,0.1617763136966065,0.0
-0.692499999999999,0.16602688855691347,0.16602688855691347,0.0
-0.6875,0.16466972053056267,0.16466972053056267,0.0
-0.6824999999999992,0.16520693287432653,0.16520693287432653,0.0
-0.6775000000000002,0.15992905721629566,0.15992905721629566,0.0
-0.6724999999999994,0.16229467648444879,0.16229467648444879,0.0
-0.6675000000000004,0.16514095942860113,0.16514095942860113,0.0
-0.6624999999999996,0.15525436734775405,0.15525436734775405,0.0
-0.6575000000000006,0.16316175605683958,0.16316175605683958,0.0
-0.6524999999999999,0.1617103402508811,0.1617103402508811,0.0
-0.6474999999999991,0.15166352694470092,0.15166352694470092,0.0
-0.6425000000000001,0.16482051697793498,0.16482051697793498,0.0
-0.6374999999999993,0.1571958716076725,0.1571958716076725,0.0
-0.6325000000000003,0.14850622632784316,0.14850622632784316,0.0
-0.6274999999999995,0.1665923752345596,0.1665923752345596,0.0
-0.6225000000000005,0.15383122587567785,0.15383122587567785,0.0
-0.6174999999999997,0.1451133062619662,0.1451133062619662,0.0
-0.6124999999999989,0.16567817177236502,0.16567817177236502,0.0
-0.6074999999999999,0.15306781886085552,0.15306781886085552,0.0
-0.6024999999999991,0.1407684836220515,0.1407684836220515,0.0
-0.5975000000000001,0.1654237027674242,0.1654237027674242,0.0
-0.5924999999999994,0.15206879239701399,0.15206879239701399,0.0
-0.5875000000000004,0.13783737767625223,0.13783737767625223,0.0
-0.5824999999999996,0.16147472080186187,0.16147472080186187,0.0
-0.5775000000000006,0.15427419043983404,0.15427419043983404,0.0
-0.5724999999999998,0.13582989997060835,0.13582989997060835,0.0
-0.567499999999999,0.15672463270963408,0.15672463270963408,0.0
-0.5625,0.15497162400893097,0.15497162400893097,0.0
-0.5574999999999992,0.1367629529887245,0.1367629529887245,0.0
-0.5525000000000002,0.1482517573229024,0.1482517573229024,0.0
-0.5474999999999994,0.15673405748759484,0.15673405748759484,0.0
-0.5425000000000004,0.1393453421499753,0.1393453421499753,0.0
-0.5374999999999996,0.14066481106448303,0.14066481106448303,0.0
-0.5325000000000006,0.15474542933787253,0.15474542933787253,0.0
-0.5274999999999999,0.14580131505310237,0.14580131505310237,0.0
-0.5224999999999991,0.13334175858896521,0.13334175858896521,0.0
-0.5175000000000001,0.14847795199396083,0.14847795199396083,0.0
-0.5124999999999993,0.15021211113874242,0.15021211113874242,0.0
-0.5075000000000003,0.13408631604786603,0.13408631604786603,0.0
-0.5024999999999995,0.13966578460064147,0.13966578460064147,0.0
-0.4975000000000005,0.15158812872101474,0.15158812872101474,0.0
-0.4924999999999997,0.13760175822723297,0.13760175822723297,0.0
-0.48749999999999893,0.13247467901657445,0.13247467901657445,0.0
-0.48249999999999993,0.14513215581788771,0.14513215581788771,0.0
-0.47749999999999915,0.14958065101537085,0.14958065101537085,0.0
-0.47250000000000014,0.1286010952746982,0.1286010952746982,0.0
-0.46749999999999936,0.13670640432095987,0.13670640432095987,0.0
-0.46250000000000036,0.15090954470783938,0.15090954470783938,0.0
-0.4574999999999996,0.12943990051320672,0.12943990051320672,0.0
-0.45250000000000057,0.1334077320346906,0.1334077320346906,0.0
-0.4474999999999998,0.138336890908173,0.138336890908173,0.0
-0.442499999999999,0.14834600510251011,0.14834600510251011,0.0
-0.4375,0.12583963533219278,0.12583963533219278,0.0
-0.4324999999999992,0.13112693576818446,0.13112693576818446,0.0
-0.4275000000000002,0.14927905812062625,0.14927905812062625,0.0
-0.42249999999999943,0.12614122822693744,0.12614122822693744,0.0
-0.4175000000000004,0.13188091800504598,0.13188091800504598,0.0
-0.41249999999999964,0.13157932511030135,0.13157932511030135,0.0
-0.40750000000000064,0.147450651196237,0.147450651196237,0.0
-0.40249999999999986,0.1255663167713305,0.1255663167713305,0.0
-0.3974999999999991,0.12495370620388047,0.12495370620388047,0.0
-0.39250000000000007,0.14104180218291382,0.14104180218291382,0.0
-0.3874999999999993,0.13225790912347676,0.13225790912347676,0.0
-0.3825000000000003,0.1286010952746982,0.1286010952746982,0.0
-0.3774999999999995,0.12524587432066434,0.12524587432066434,0.0
-0.3725000000000005,0.1408627314016592,0.1408627314016592,0.0
-0.3674999999999997,0.12825237849014978,0.12825237849014978,0.0
-0.36249999999999893,0.12240901615447276,0.12240901615447276,0.0
-0.35749999999999993,0.1308630419852829,0.1308630419852829,0.0
-0.35249999999999915,0.13770543078480144,0.13770543078480144,0.0
-0.34750000000000014,0.1278094139259936,0.1278094139259936,0.0
-0.34249999999999936,0.11830923774153805,0.11830923774153805,0.0
-0.33750000000000036,0.1310044136546944,0.1310044136546944,0.0
-0.3324999999999996,0.13585817430449065,0.13585817430449065,0.0
-0.32750000000000057,0.12373790984694123,0.12373790984694123,0.0
-0.3224999999999998,0.1199020252169081,0.1199020252169081,0.0
-0.317499999999999,0.13103268798857673,0.13103268798857673,0.0
-0.3125,0.13176782066951673,0.13176782066951673,0.0
-0.3074999999999992,0.11875220230569423,0.11875220230569423,0.0
-0.3025000000000002,0.12137229057878811,0.12137229057878811,0.0
-0.29749999999999943,0.1316924224458306,0.1316924224458306,0.0
-0.2925000000000004,0.13008078541453902,0.13008078541453902,0.0
-0.28749999999999964,0.11389844165589798,0.11389844165589798,0.0
-0.28250000000000064,0.12175870647517968,0.12175870647517968,0.0
-0.27749999999999986,0.13106096232245903,0.13106096232245903,0.0
-0.2724999999999991,0.12852569705101205,0.12852569705101205,0.0
-0.26750000000000007,0.11037357469857025,0.11037357469857025,0.0
-0.2624999999999993,0.12330437006074582,0.12330437006074582,0.0
-0.2575000000000003,0.1297791925197944,0.1297791925197944,0.0
-0.2524999999999995,0.12510450265125278,0.12510450265125278,0.0
-0.2475000000000005,0.10917662789755253,0.10917662789755253,0.0
-0.24249999999999972,0.12385100718247045,0.12385100718247045,0.0
-0.23749999999999893,0.1291948562862267,0.1291948562862267,0.0
-0.23249999999999993,0.12144768880247428,0.12144768880247428,0.0
-0.22749999999999915,0.1092426013432779,0.1092426013432779,0.0
-0.22250000000000014,0.12125919324325889,0.12125919324325889,0.0
-0.21749999999999936,0.12946817484708897,0.12946817484708897,0.0
-0.21250000000000036,0.11792282184514653,0.11792282184514653,0.0
-0.20749999999999957,0.10966671635151254,0.10966671635151254,0.0
-0.20250000000000057,0.11878047663957654,0.11878047663957654,0.0
-0.1974999999999998,0.1286482191645021,0.1286482191645021,0.0
-0.192499999999999,0.11699919360499114,0.11699919360499114,0.0
-0.1875,0.10907295533998405,0.10907295533998405,0.0
-0.18249999999999922,0.117536405948755,0.117536405948755,0.0
-0.1775000000000002,0.1269140600197205,0.1269140600197205,0.0
-0.17249999999999943,0.11552892824311112,0.11552892824311112,0.0
-0.16750000000000043,0.10824357487943637,0.10824357487943637,0.0
-0.16249999999999964,0.11693322015926576,0.11693322015926576,0.0
-0.15750000000000064,0.12443534341603814,0.12443534341603814,0.0
-0.15249999999999986,0.11511423801283725,0.11511423801283725,0.0
-0.14749999999999908,0.10548211493693091,0.10548211493693091,0.0
-0.14250000000000007,0.11922344120373271,0.11922344120373271,0.0
-0.1374999999999993,0.12010937033204501,0.12010937033204501,0.0
-0.13250000000000028,0.11581167158193417,0.11581167158193417,0.0
-0.1274999999999995,0.10234366387599472,0.10234366387599472,0.0
-0.1225000000000005,0.12013764466592733,0.12013764466592733,0.0
-0.11749999999999972,0.11705574227275571,0.11705574227275571,0.0
-0.11249999999999893,0.11686724671354035,0.11686724671354035,0.0
-0.10749999999999993,0.10060950473121316,0.10060950473121316,0.0
-0.10249999999999915,0.11848830852279266,0.11848830852279266,0.0
-0.09750000000000014,0.11502941501119032,0.11502941501119032,0.0
-0.09249999999999936,0.11879932619549807,0.11879932619549807,0.0
-0.08750000000000036,0.09780092089890387,0.09780092089890387,0.0
-0.08249999999999957,0.11635830870365882,0.11635830870365882,0.0
-0.07750000000000057,0.11548180435330725,0.11548180435330725,0.0
-0.07249999999999979,0.1170086183829519,0.1170086183829519,0.0
-0.067499999999999,0.09832870846470695,0.09832870846470695,0.0
-0.0625,0.11319158330884027,0.11319158330884027,0.0
-0.05749999999999922,0.11291826474797796,0.11291826474797796,0.0
-0.05250000000000021,0.11747985728099038,0.11747985728099038,0.0
-0.04749999999999943,0.10171220375262317,0.10171220375262317,0.0
-0.042500000000000426,0.10551981404877402,0.10551981404877402,0.0
-0.037499999999999645,0.11255069840750798,0.11255069840750798,0.0
-0.03250000000000064,0.11770605195204882,0.11770605195204882,0.0
-0.027499999999999858,0.10485065481355937,0.10485065481355937,0.0
-0.022499999999999076,0.10010999149929237,0.10010999149929237,0.0
-0.01750000000000007,0.11247530018382182,0.11247530018382182,0.0
-0.01249999999999929,0.11536870701777803,0.11536870701777803,0.0
-0.007500000000000284,0.10715030063598713,0.10715030063598713,0.0
-0.0024999999999995026,0.09939370837427391,0.09939370837427391,0.0
0.0024999999999995026,0.10898813233833712,0.10898813233833712,0.0
0.007500000000000284,0.11442622922170108,0.11442622922170108,0.0
0.012500000000001066,0.10722569885967329,0.10722569885967329,0.0
0.01750000000000007,0.09978012427066545,0.09978012427066545,0.0
0.022500000000000853,0.10562348660634248,0.10562348660634248,0.0
0.027499999999999858,0.11591534413950264,0.11591534413950264,0.0
0.03250000000000064,0.10056238084140932,0.10056238084140932,0.0
0.037499999999999645,0.1043511415816386,0.1043511415816386,0.0
0.042500000000000426,0.10317304433654244,0.10317304433654244,0.0
0.04749999999999943,0.10904468100610175,0.10904468100610175,0.0
0.05250000000000021,0.10943109690249332,0.10943109690249332,0.0
0.057500000000000995,0.09643432809459233,0.09643432809459233,0.0
0.0625,0.10379507968195324,0.10379507968195324,0.0
0.06750000000000078,0.1083283978810833,0.1083283978810833,0.0
0.07249999999999979,0.11492574245362187,0.11492574245362187,0.0
0.07750000000000057,0.09028937286417066,0.09028937286417066,0.0
0.08249999999999957,0.10274892932830783,0.10274892932830783,0.0
0.08750000000000036,0.10695238029881095,0.10695238029881095,0.0
0.09249999999999936,0.11265437096507641,0.11265437096507641,0.0
0.09750000000000014,0.10025136316870392,0.10025136316870392,0.0
