omega,S,S_edge,S_cont,Sr,Sr_edge,Sr_cont
-1.5474999999999994,0.0,0.0,0.0
-1.5425000000000004,8.246680715673208e-5,8.246680715673208e-5,0.0
-1.5374999999999996,0.003169081589308704,0.003169081589308704,0.0
-1.5325000000000006,0.007634070148223201,0.007634070148223201,0.0
-1.5274999999999999,0.016081027395562757,0.016081027395562757,0.0
-1.522499999999999,0.04840801580100173,0.04840801580100173,0.0
-1.5175,0.10399064382463916,0.10399064382463916,0.0
-1.5124999999999993,0.20527166398555707,0.20527166398555707,0.0
-1.5075000000000003,0.33790185183848426,0.33790185183848426,0.0
-1.5024999999999995,0.5128846356526188,0.5128846356526188,0.0
-1.4975000000000005,0.7290301372104134,0.7290301372104134,0.0
-1.4924999999999997,0.901845222093571,0.901845222093571,0.0
-1.4875000000000007,0.9932302253956813,0.9932302253956813,0.0
-1.4825,1.0426278428825635,1.0426278428825635,0.0
-1.4774999999999991,1.0351822682935559,1.0351822682935559,0.0
-1.4725000000000001,0.9869980909691225,0.9869980909691225,0.0
-1.4674999999999994,0.9265027974334341,0.9265027974334341,0.0
-1.4625000000000004,0.8853400796897736,0.8853400796897736,0.0
-1.4574999999999996,0.7964644235197185,0.7964644235197185,0.0
-1.4525000000000006,0.7140211783078884,0.7140211783078884,0.0
-1.4474999999999998,0.6468460733925044,0.6468460733925044,0.0
-1.442499999999999,0.5988503916272864,0.5988503916272864,0.0
-1.4375,0.5615636138199924,0.5615636138199924,0.0
-1.4324999999999992,0.5304147226596497,0.5304147226596497,0.0
-1.4275000000000002,0.5040253443694954,0.5040253443694954,0.0
-1.4224999999999994,0.48596511360217115,0.48596511360217115,0.0
-1.4175000000000004,0.4655604693171055,0.4655604693171055,0.0
-1.4124999999999996,0.4452618537840984,0.4452618537840984,0.0
-1.4075000000000006,0.43104222003578757,0.43104222003578757,0.0
-1.4024999999999999,0.4162099757200268,0.4162099757200268,0.0
-1.397499999999999,0.4076334277757267,0.4076334277757267,0.0
-1.3925,0.3870638498763475,0.3870638498763475,0.0
-1.3874999999999993,0.38834797587350234,0.38834797587350234,0.0
-1.3825000000000003,0.3682849797895145,0.3682849797895145,0.0
-1.3774999999999995,0.35326423991453826,0.35326423991453826,0.0
-1.3725000000000005,0.3611339295117807,0.3611339295117807,0.0
-1.3674999999999997,0.33548675248603704,0.33548675248603704,0.0
-1.362499999999999,0.33872651991005154,0.33872651991005154,0.0
-1.3575,0.3276288438612456,0.3276288438612456,0.0
-1.3524999999999991,0.31942928703537626,0.31942928703537626,0.0
-1.3475000000000001,0.3121368650882309,0.3121368650882309,0.0
-1.3424999999999994,0.3090620312785298,0.3090620312785298,0.0
-1.3375000000000004,0.29613830449982487,0.29613830449982487,0.0
-1.3324999999999996,0.30021452096785767,0.30021452096785767,0.0
-1.3275000000000006,0.28237812867710155,0.28237812867710155,0.0
-1.3224999999999998,0.28936424534052185,0.28936424534052185,0.0
-1.317499999999999,0.27417857185123223,0.27417857185123223,0.0
-1.3125,0.273624866146037,0.273624866146037,0.0
-1.3074999999999992,0.2728591029367245,0.2728591029367245,0.0
-1.3025000000000002,0.2553879207919483,0.2553879207919483,0.0
-1.2974999999999994,0.2718105963885889,0.2718105963885889,0.0
-1.2925000000000004,0.24238172720608656,0.24238172720608656,0.0
-1.2874999999999996,0.2602416814417445,0.2602416814417445,0.0
-1.2825000000000006,0.24211076483971444,0.24211076483971444,0.0
-1.2774999999999999,0.24106225829157885,0.24106225829157885,0.0
-1.272499999999999,0.24343023375422213,0.24343023375422213,0.0
-1.2675,0.23187309977982867,0.23187309977982867,0.0
-1.2624999999999993,0.23333394036374797,0.23333394036374797,0.0
-1.2575000000000003,0.22899854250179397,0.22899854250179397,0.0
-1.2524999999999995,0.22341436156003813,0.22341436156003813,0.0
-1.2475000000000005,0.2251461645103295,0.2251461645103295,0.0
-1.2424999999999997,0.2193970499542602,0.2193970499542602,0.0
-1.237499999999999,0.20950103309545234,0.20950103309545234,0.0
-1.2325,0.21934992606445639,0.21934992606445639,0.0
-1.2274999999999991,0.20471795828036188,0.20471795828036188,0.0
-1.2225000000000001,0.204388091051735,0.204388091051735,0.0
-1.2174999999999994,0.21222243773162444,0.21222243773162444,0.0
-1.2125000000000004,0.19331397694783092,0.19331397694783092,0.0
-1.2074999999999996,0.2000998170795849,0.2000998170795849,0.0
-1.2025000000000006,0.20505960648143978,0.20505960648143978,0.0
-1.1974999999999998,0.18269932076951445,0.18269932076951445,0.0
-1.192499999999999,0.19432714057861364,0.19432714057861364,0.0
-1.1875,0.19451563613782902,0.19451563613782902,0.0
-1.1824999999999992,0.17765706456050281,0.17765706456050281,0.0
-1.1775000000000002,0.18844843532558378,0.18844843532558378,0.0
-1.1724999999999994,0.184678524141276,0.184678524141276,0.0
-1.1675000000000004,0.17259124640658927,0.17259124640658927,0.0
-1.1624999999999996,0.18023709752726344,0.18023709752726344,0.0
-1.1575000000000006,0.18302918799814133,0.18302918799814133,0.0
-1.1524999999999999,0.1602094443606285,0.1602094443606285,0.0
-1.147499999999999,0.17447620199874317,0.17447620199874317,0.0
-1.1425,0.1823105486786327,0.1823105486786327,0.0
-1.1374999999999993,0.1541775864657361,0.1541775864657361,0.0
-1.1325000000000003,0.1623653623191545,0.1623653623191545,0.0
-1.1274999999999995,0.17600772841736817,0.17600772841736817,0.0
-1.1225000000000005,0.15954970990337464,0.15954970990337464,0.0
-1.1174999999999997,0.1507021995927024,0.1507021995927024,0.0
-1.112499999999999,0.16167028494454777,0.16167028494454777,0.0
-1.1075,0.16293084899680066,0.16293084899680066,0.0
-1.1024999999999991,0.15319976575230626,0.15319976575230626,0.0
-1.0975000000000001,0.1469087264634927,0.1469087264634927,0.0
-1.0924999999999994,0.15294058435838512,0.15294058435838512,0.0
-1.0875000000000004,0.152045230452112,0.152045230452112,0.0
-1.0824999999999996,0.14712078396761,0.14712078396761,0.0
-1.0775000000000006,0.14773339453506001,0.14773339453506001,0.0
-1.0724999999999998,0.14055878231242433,0.14055878231242433,0.0
-1.067499999999999,0.14594268672251384,0.14594268672251384,0.0
-1.0625,0.14126564065948205,0.14126564065948205,0.0
-1.0574999999999992,0.14282072902300896,0.14282072902300896,0.0
-1.0525000000000002,0.13385540898782713,0.13385540898782713,0.0
-1.0474999999999994,0.14154838399830513,0.14154838399830513,0.0
-1.0425000000000004,0.1366003755689012,0.1366003755689012,0.0
-1.0374999999999996,0.1313107189384194,0.1313107189384194,0.0
-1.0325000000000006,0.1308512610128319,0.1308512610128319,0.0
-1.0274999999999999,0.13628228931272524,0.13628228931272524,0.0
-1.022499999999999,0.13412637135419925,0.13412637135419925,0.0
-1.0175,0.12972028765753954,0.12972028765753954,0.0
-1.0124999999999993,0.11505297695609223,0.11505297695609223,0.0
-1.0075000000000003,0.127116692745877,0.127116692745877,0.0
-1.0024999999999995,0.1365296897341954,0.1365296897341954,0.0
-0.9975000000000005,0.1325948449355742,0.1325948449355742,0.0
-0.9924999999999997,0.11531215835001336,0.11531215835001336,0.0
-0.9874999999999989,0.10355474784395355,0.10355474784395355,0.0
-0.9824999999999999,0.12193306486745385,0.12193306486745385,0.0
-0.9774999999999991,0.13364335148370982,0.13364335148370982,0.0
-0.9725000000000001,0.13206470117528094,0.13206470117528094,0.0
-0.9674999999999994,0.10717150638639883,0.10717150638639883,0.0
-0.9625000000000004,0.09898373053298042,0.09898373053298042,0.0
-0.9574999999999996,0.10872659474992574,0.10872659474992574,0.0
-0.9525000000000006,0.12542023271293853,0.12542023271293853,0.0
-0.9474999999999998,0.12736409316734723,0.12736409316734723,0.0
-0.942499999999999,0.10942167212453252,0.10942167212453252,0.0
-0.9375,0.0988305778911179,0.0988305778911179,0.0
-0.9324999999999992,0.09984374152190063,0.09984374152190063,0.0
-0.9275000000000002,0.11156580911060753,0.11156580911060753,0.0
-0.9224999999999994,0.11836343021481245,0.11836343021481245,0.0
-0.9175000000000004,0.10461503536454012,0.10461503536454012,0.0
-0.9124999999999996,0.09990264638415541,0.09990264638415541,0.0
-0.9075000000000006,0.09925469289935253,0.09925469289935253,0.0
-0.9024999999999999,0.10529833176669588,0.10529833176669588,0.0
-0.8974999999999991,0.11070579812168732,0.11070579812168732,0.0
-0.8925000000000001,0.09775850939808038,0.09775850939808038,0.0
-0.8874999999999993,0.0921861094287755,0.0921861094287755,0.0
-0.8825000000000003,0.09173843247563895,0.09173843247563895,0.0
-0.8774999999999995,0.10128102016091797,0.10128102016091797,0.0
-0.8725000000000005,0.10680629624041903,0.10680629624041903,0.0
-0.8674999999999997,0.10612299983826323,0.10612299983826323,0.0
-0.8624999999999989,0.08360956148447536,0.08360956148447536,0.0
-0.8574999999999999,0.08827482657505621,0.08827482657505621,0.0
-0.8524999999999991,0.08972388618652449,0.08972388618652449,0.0
-0.8475000000000001,0.09299899652789186,0.09299899652789186,0.0
-0.8424999999999994,0.09455408489141881,0.09455408489141881,0.0
-0.8375000000000004,0.10009114194337082,0.10009114194337082,0.0
-0.8324999999999996,0.08450491539074845,0.08450491539074845,0.0
-0.8275000000000006,0.08294982702722152,0.08294982702722152,0.0
-0.8224999999999998,0.0907134878724053,0.0907134878724053,0.0
-0.817499999999999,0.09014800119475912,0.09014800119475912,0.0
-0.8125,0.08814523587809563,0.08814523587809563,0.0
-0.8074999999999992,0.08064075642683301,0.08064075642683301,0.0
-0.8025000000000002,0.07649385412409448,0.07649385412409448,0.0
-0.7974999999999994,0.07935663042967818,0.07935663042967818,0.0
-0.7925000000000004,0.08510574498574751,0.08510574498574751,0.0
-0.7874999999999996,0.0960973922824948,0.0960973922824948,0.0
-0.7825000000000006,0.09467189461592841,0.09467189461592841,0.0
-0.7774999999999999,0.07925060167761953,0.07925060167761953,0.0
-0.7724999999999991,0.06258052565950868,0.06258052565950868,0.0
-0.7675000000000001,0.06795264909714722,0.06795264909714722,0.0
-0.7624999999999993,0.07009678608322226,0.07009678608322226,0.0
-0.7575000000000003,0.0755042524382137,0.0755042524382137,0.0
-0.7524999999999995,0.0952962861558294,0.0952962861558294,0.0
-0.7475000000000005,0.09638013562131788,0.09638013562131788,0.0
-0.7424999999999997,0.0769768739945839,0.0769768739945839,0.0
-0.7374999999999989,0.06741072436440299,0.06741072436440299,0.0
-0.7324999999999999,0.05406288257746336,0.05406288257746336,0.0
-0.7274999999999991,0.06286326899833176,0.06286326899833176,0.0
-0.7225000000000001,0.07311271503066848,0.07311271503066848,0.0
-0.7174999999999994,0.07583411966684062,0.07583411966684062,0.0
-0.7125000000000004,0.07751879872732817,0.07751879872732817,0.0
-0.7074999999999996,0.07831990485399357,0.07831990485399357,0.0
-0.7025000000000006,0.07802538054271953,0.07802538054271953,0.0
-0.6974999999999998,0.07036774844959438,0.07036774844959438,0.0
-0.692499999999999,0.05759717431275188,0.05759717431275188,0.0
-0.6875,0.05941144407019997,0.05941144407019997,0.0
-0.6824999999999992,0.06673920893469817,0.06673920893469817,0.0
-0.6775000000000002,0.06497206306705391,0.06497206306705391,0.0
-0.6724999999999994,0.05945856796000382,0.05945856796000382,0.0
-0.6675000000000004,0.0645715100037212,0.0645715100037212,0.0
-0.6624999999999996,0.06735181950214819,0.06735181950214819,0.0
-0.6575000000000006,0.07443218394517619,0.07443218394517619,0.0
-0.6524999999999999,0.07139269305282805,0.07139269305282805,0.0
-0.6474999999999991,0.07165187444674921,0.07165187444674921,0.0
-0.6425000000000001,0.05626592442579319,0.05626592442579319,0.0
-0.6374999999999993,0.05333246228550372,0.05333246228550372,0.0
-0.6325000000000003,0.05390972993560085,0.05390972993560085,0.0
-0.6274999999999995,0.05607742886657782,0.05607742886657782,0.0
-0.6225000000000005,0.0470649849415921,0.0470649849415921,0.0
-0.6174999999999997,0.05077599126364504,0.05077599126364504,0.0
-0.6124999999999989,0.06629153198156162,0.06629153198156162,0.0
-0.6074999999999999,0.07512726131978292,0.07512726131978292,0.0
-0.6024999999999991,0.07067405373331938,0.07067405373331938,0.0
-0.5975000000000001,0.06782305840018665,0.06782305840018665,0.0
-0.5924999999999994,0.05927007240078844,0.05927007240078844,0.0
-0.5875000000000004,0.05090558196060563,0.05090558196060563,0.0
-0.5824999999999996,0.046299221732279586,0.046299221732279586,0.0
-0.5775000000000006,0.04627565978737766,0.04627565978737766,0.0
-0.5724999999999998,0.04031448772719103,0.04031448772719103,0.0
-0.567499999999999,0.038405970190135225,0.038405970190135225,0.0
-0.5625,0.04710032785894498,0.04710032785894498,0.0
-0.5574999999999992,0.05806841321079035,0.05806841321079035,0.0
-0.5525000000000002,0.06440657638940776,0.06440657638940776,0.0
-0.5474999999999994,0.07348970614909925,0.07348970614909925,0.0
-0.5425000000000004,0.07595192939135025,0.07595192939135025,0.0
-0.5374999999999996,0.05896376711706343,0.05896376711706343,0.0
-0.5325000000000006,0.048773225946981545,0.048773225946981545,0.0
-0.5274999999999999,0.03974900104954487,0.03974900104954487,0.0
-0.5224999999999991,0.037616645035920784,0.037616645035920784,0.0
-0.5175000000000001,0.03615580445200153,0.03615580445200153,0.0
-0.5124999999999993,0.03471852581298421,0.03471852581298421,0.0
-0.5075000000000003,0.039560505490329474,0.039560505490329474,0.0
-0.5024999999999995,0.04091531732219008,0.04091531732219008,0.0
-0.4975000000000005,0.04647593631904401,0.04647593631904401,0.0
-0.4924999999999997,0.05302615700177873,0.05302615700177873,0.0
-0.48749999999999893,0.06238024912784235,0.06238024912784235,0.0
-0.48249999999999993,0.07187571292331749,0.07187571292331749,0.0
-0.47749999999999915,0.06997897635871266,0.06997897635871266,0.0
-0.47250000000000014,0.050669962511586376,0.050669962511586376,0.0
-0.46749999999999936,0.03837062727278234,0.03837062727278234,0.0
-0.46250000000000036,0.03206780701151782,0.03206780701151782,0.0
-0.4574999999999996,0.03278644633102649,0.03278644633102649,0.0
-0.45250000000000057,0.03166725394818513,0.03166725394818513,0.0
-0.4474999999999998,0.03190287339720436,0.03190287339720436,0.0
-0.442499999999999,0.035048393041611135,0.035048393041611135,0.0
-0.4375,0.04009064925062276,0.04009064925062276,0.0
-0.4324999999999992,0.044155084746204554,0.044155084746204554,0.0
-0.4275000000000002,0.049126655120510405,0.049126655120510405,0.0
-0.42249999999999943,0.048525825525511344,0.048525825525511344,0.0
-0.4175000000000004,0.050269409448253685,0.050269409448253685,0.0
-0.41249999999999964,0.053155747698739306,0.053155747698739306,0.0
-0.40750000000000064,0.053155747698739306,0.053155747698739306,0.0
-0.40249999999999986,0.05001022805433254,0.05001022805433254,0.0
-0.3974999999999991,0.04228191012650164,0.04228191012650164,0.0
-0.39250000000000007,0.03668594821229482,0.03668594821229482,0.0
-0.3874999999999993,0.025505805356332144,0.025505805356332144,0.0
-0.3825000000000003,0.02701376983005524,0.02701376983005524,0.0
-0.3774999999999995,0.029746955438678353,0.029746955438678353,0.0
-0.3725000000000005,0.033587552457691884,0.033587552457691884,0.0
-0.3674999999999997,0.03375248607200535,0.03375248607200535,0.0
-0.36249999999999893,0.039831467856701594,0.039831467856701594,0.0
-0.35749999999999993,0.04190491900807086,0.04190491900807086,0.0
-0.35249999999999915,0.042894520693951645,0.042894520693951645,0.0
-0.34750000000000014,0.04178710928356125,0.04178710928356125,0.0
-0.34249999999999936,0.0396783152148391,0.0396783152148391,0.0
-0.33750000000000036,0.044320018360518014,0.044320018360518014,0.0
-0.3324999999999996,0.04168108053150259,0.04168108053150259,0.0
-0.32750000000000057,0.039430914793368896,0.039430914793368896,0.0
-0.3224999999999998,0.042682463189834326,0.042682463189834326,0.0
-0.317499999999999,0.0391835143718987,0.0391835143718987,0.0
-0.3125,0.03501305012425825,0.03501305012425825,0.0
-0.3074999999999992,0.03642676681837366,0.03642676681837366,0.0
-0.3025000000000002,0.027697066232211017,0.027697066232211017,0.0
-0.29749999999999943,0.025187719100156176,0.025187719100156176,0.0
-0.2925000000000004,0.02932284043044374,0.02932284043044374,0.0
-0.28749999999999964,0.02941708821005143,0.02941708821005143,0.0
-0.28250000000000064,0.030748338097010105,0.030748338097010105,0.0
-0.27749999999999986,0.03714540613788233,0.03714540613788233,0.0
-0.2724999999999991,0.036980472523568855,0.036980472523568855,0.0
-0.26750000000000007,0.03630895709386404,0.03630895709386404,0.0
-0.2624999999999993,0.029134344871228346,0.029134344871228346,0.0
-0.2575000000000003,0.03165547297573416,0.03165547297573416,0.0
-0.2524999999999995,0.03454181122621978,0.03454181122621978,0.0
-0.2475000000000005,0.04106846996405258,0.04106846996405258,0.0
-0.24249999999999972,0.03643854779082462,0.03643854779082462,0.0
-0.23749999999999893,0.0371218441929804,0.0371218441929804,0.0
-0.23249999999999993,0.03251548396465436,0.03251548396465436,0.0
-0.22749999999999915,0.033917419686318805,0.033917419686318805,0.0
-0.22250000000000014,0.037663768925724636,0.037663768925724636,0.0
-0.21749999999999936,0.03657991946023616,0.03657991946023616,0.0
-0.21250000000000036,0.03231520743298801,0.03231520743298801,0.0
-0.20749999999999957,0.029805860300933167,0.029805860300933167,0.0
-0.20250000000000057,0.026813493298388884,0.026813493298388884,0.0
-0.1974999999999998,0.02821542902005333,0.02821542902005333,0.0
-0.192499999999999,0.027001988857604284,0.027001988857604284,0.0
-0.1875,0.030159289474462017,0.030159289474462017,0.0
-0.18249999999999922,0.03184396853494955,0.03184396853494955,0.0
-0.1775000000000002,0.029805860300933167,0.029805860300933167,0.0
-0.17249999999999943,0.023243858645747486,0.023243858645747486,0.0
-0.16750000000000043,0.019827376634968585,0.019827376634968585,0.0
-0.16249999999999964,0.02208932334555324,0.02208932334555324,0.0
-0.15750000000000064,0.02535265271446963,0.02535265271446963,0.0
-0.15249999999999986,0.029240373623287002,0.029240373623287002,0.0
-0.14749999999999908,0.02887516347730719,0.02887516347730719,0.0
-0.14250000000000007,0.03031244211632452,0.03031244211632452,0.0
-0.1374999999999993,0.03282178924837937,0.03282178924837937,0.0
-0.13250000000000028,0.03606155667239384,0.03606155667239384,0.0
-0.1274999999999995,0.037357463641999634,0.037357463641999634,0.0
-0.1225000000000005,0.04201094776012952,0.04201094776012952,0.0
-0.11749999999999972,0.04177532831111028,0.04177532831111028,0.0
-0.11249999999999893,0.03719253002768616,0.03719253002768616,0.0
-0.10749999999999993,0.028038714433288904,0.028038714433288904,0.0
-0.10249999999999915,0.026860617188192732,0.026860617188192732,0.0
-0.09750000000000014,0.02740254192093698,0.02740254192093698,0.0
-0.09249999999999936,0.029582021824364896,0.029582021824364896,0.0
-0.08750000000000036,0.025623615080841752,0.025623615080841752,0.0
-0.08249999999999957,0.02061670178918302,0.02061670178918302,0.0
-0.07750000000000057,0.014714434591251198,0.014714434591251198,0.0
-0.07249999999999979,0.01452593903203581,0.01452593903203581,0.0
-0.067499999999999,0.012593859550078084,0.012593859550078084,0.0
-0.0625,0.011557133974393454,0.011557133974393454,0.0
-0.05749999999999922,0.01334784178693964,0.01334784178693964,0.0
-0.05250000000000021,0.015162111544387742,0.015162111544387742,0.0
-0.04749999999999943,0.020369301367712825,0.020369301367712825,0.0
-0.042500000000000426,0.02518771910015617,0.02518771910015617,0.0
-0.037499999999999645,0.02832145777211199,0.02832145777211199,0.0
-0.03250000000000064,0.032868913138183214,0.032868913138183214,0.0
-0.027499999999999858,0.036709510157196736,0.036709510157196736,0.0
-0.022499999999999076,0.042682463189834326,0.042682463189834326,0.0
-0.01750000000000007,0.04311835917051992,0.04311835917051992,0.0
-0.01249999999999929,0.04378987460022473,0.04378987460022473,0.0
-0.007500000000000284,0.038429532135037144,0.038429532135037144,0.0
-0.0024999999999995026,0.026412940235056193,0.026412940235056193,0.0
0.0024999999999995026,0.03607333764484481,0.03607333764484481,0.0
0.007500000000000284,0.0361086805621977,0.0361086805621977,0.0
0.012500000000001066,0.034694963868082275,0.034694963868082275,0.0
0.01750000000000007,0.030748338097010112,0.030748338097010112,0.0
0.022500000000000853,0.019721347882909926,0.019721347882909926,0.0
