omega,S,S_edge,S_cont,Sr,Sr_edge,Sr_cont
-1.4924999999999997,0.0,0.0,0.0
-1.4875000000000007,0.00029153979825313276,0.00029153979825313276,0.0
-1.4825,0.0025032210263803466,0.0025032210263803466,0.0
-1.4774999999999991,0.010183786745876671,0.010183786745876671,0.0
-1.4725000000000001,0.043942084764291144,0.043942084764291144,0.0
-1.4674999999999994,0.14636303181956417,0.14636303181956417,0.0
-1.4625000000000004,0.37293972054470587,0.37293972054470587,0.0
-1.4574999999999996,0.8293905136441969,0.8293905136441969,0.0
-1.4525000000000006,1.3981846600360508,1.3981846600360508,0.0
-1.4474999999999998,1.8638843019077005,1.8638843019077005,0.0
-1.442499999999999,2.0459659855615153,2.0459659855615153,0.0
-1.4375,1.9085602627158693,1.9085602627158693,0.0
-1.4324999999999992,1.6028958638922035,1.6028958638922035,0.0
-1.4275000000000002,1.3340961699028206,1.3340961699028206,0.0
-1.4224999999999994,1.1618162553282059,1.1618162553282059,0.0
-1.4175000000000004,1.0483670614217735,1.0483670614217735,0.0
-1.4124999999999996,0.9665951745600164,0.9665951745600164,0.0
-1.4075000000000006,0.9016521712250085,0.9016521712250085,0.0
-1.4024999999999999,0.8510750427763353,0.8510750427763353,0.0
-1.397499999999999,0.804589524599698,0.804589524599698,0.0
-1.3925,0.7680967843355989,0.7680967843355989,0.0
-1.3874999999999993,0.7335141324048824,0.7335141324048824,0.0
-1.3825000000000003,0.7064009311673412,0.7064009311673412,0.0
-1.3774999999999995,0.6765532876841152,0.6765532876841152,0.0
-1.3725000000000005,0.6540946701221325,0.6540946701221325,0.0
-1.3674999999999997,0.6359789902444724,0.6359789902444724,0.0
-1.362499999999999,0.6159532220334296,0.6159532220334296,0.0
-1.3575,0.595726391892557,0.595726391892557,0.0
-1.3524999999999991,0.5803552073570728,0.5803552073570728,0.0
-1.3475000000000001,0.56715549166375,0.56715549166375,0.0
-1.3424999999999994,0.5508996346370149,0.5508996346370149,0.0
-1.3375000000000004,0.5382226799612494,0.5382226799612494,0.0
-1.3324999999999996,0.5261086986890071,0.5261086986890071,0.0
-1.3275000000000006,0.5144873191448477,0.5144873191448477,0.0
-1.3224999999999998,0.5030971608199927,0.5030971608199927,0.0
-1.317499999999999,0.4931848076793861,0.4931848076793861,0.0
-1.3125,0.4839560651002007,0.4839560651002007,0.0
-1.3074999999999992,0.47466700394206635,0.47466700394206635,0.0
-1.3025000000000002,0.4665943674594021,0.4665943674594021,0.0
-1.2974999999999994,0.45716456295038693,0.45716456295038693,0.0
-1.2925000000000004,0.44905171408175654,0.44905171408175654,0.0
-1.2874999999999996,0.4412404581078708,0.4412404581078708,0.0
-1.2825000000000006,0.43451493655506596,0.43451493655506596,0.0
-1.2774999999999999,0.4280306893180566,0.4280306893180566,0.0
-1.272499999999999,0.42177766330035144,0.42177766330035144,0.0
-1.2675,0.41494155768614016,0.41494155768614016,0.0
-1.2624999999999993,0.40838693877369037,0.40838693877369037,0.0
-1.2575000000000003,0.40356145245777636,0.40356145245777636,0.0
-1.2524999999999995,0.3976502317207819,0.3976502317207819,0.0
-1.2475000000000005,0.3905125332118259,0.3905125332118259,0.0
-1.2424999999999997,0.3851441796853716,0.3851441796853716,0.0
-1.237499999999999,0.3854859849660822,0.3854859849660822,0.0
-1.2325,0.3776144104132476,0.3776144104132476,0.0
-1.2274999999999991,0.3686772076323153,0.3686772076323153,0.0
-1.2225000000000001,0.3676015263077262,0.3676015263077262,0.0
-1.2174999999999994,0.3654401105620564,0.3654401105620564,0.0
-1.2125000000000004,0.35898602261452156,0.35898602261452156,0.0
-1.2074999999999996,0.35506531498284144,0.35506531498284144,0.0
-1.2025000000000006,0.35101391709677204,0.35101391709677204,0.0
-1.1974999999999998,0.3452233335176753,0.3452233335176753,0.0
-1.192499999999999,0.3442984486404585,0.3442984486404585,0.0
-1.1875,0.3419962895439079,0.3419962895439079,0.0
-1.1824999999999992,0.3341146618945819,0.3341146618945819,0.0
-1.1775000000000002,0.33381306899983715,0.33381306899983715,0.0
-1.1724999999999994,0.331581281578727,0.331581281578727,0.0
-1.1675000000000004,0.32426262733292427,0.32426262733292427,0.0
-1.1624999999999996,0.3250467688592602,0.3250467688592602,0.0
-1.1575000000000006,0.3187334242626062,0.3187334242626062,0.0
-1.1524999999999999,0.3174968933941532,0.3174968933941532,0.0
-1.147499999999999,0.31680322973624064,0.31680322973624064,0.0
-1.1425,0.30681045182370215,0.30681045182370215,0.0
-1.1374999999999993,0.3138677255607263,0.3138677255607263,0.0
-1.1325000000000003,0.3027389477446499,0.3027389477446499,0.0
-1.1274999999999995,0.30436754937627075,0.30436754937627075,0.0
-1.1225000000000005,0.3046289298850494,0.3046289298850494,0.0
-1.1174999999999997,0.291891656630335,0.291891656630335,0.0
-1.112499999999999,0.303402452113088,0.303402452113088,0.0
-1.1075,0.28837307285831437,0.28837307285831437,0.0
-1.1024999999999991,0.29315834678826236,0.29315834678826236,0.0
-1.0975000000000001,0.29059480718293307,0.29059480718293307,0.0
-1.0924999999999994,0.2819793034897285,0.2819793034897285,0.0
-1.0875000000000004,0.29005193997239276,0.29005193997239276,0.0
-1.0824999999999996,0.27628925087554657,0.27628925087554657,0.0
-1.0775000000000006,0.28590001112140845,0.28590001112140845,0.0
-1.0724999999999998,0.2739066670070641,0.2739066670070641,0.0
-1.067499999999999,0.2781993392089292,0.2781993392089292,0.0
-1.0625,0.27426857848075764,0.27426857848075764,0.0
-1.0574999999999992,0.27128280882278594,0.27128280882278594,0.0
-1.0525000000000002,0.2734140652789812,0.2734140652789812,0.0
-1.0474999999999994,0.2642154819892703,0.2642154819892703,0.0
-1.0425000000000004,0.2713632335947178,0.2713632335947178,0.0
-1.0374999999999996,0.25867622582246075,0.25867622582246075,0.0
-1.0325000000000006,0.2695737824192331,0.2695737824192331,0.0
-1.0274999999999999,0.2538406864100554,0.2538406864100554,0.0
-1.022499999999999,0.26704040210337826,0.26704040210337826,0.0
-1.0175,0.24928663369941165,0.24928663369941165,0.0
-1.0124999999999993,0.2643361191471682,0.2643361191471682,0.0
-1.0075000000000003,0.24514475794491886,0.24514475794491886,0.0
-1.0024999999999995,0.262868367059411,0.262868367059411,0.0
-0.9975000000000005,0.24080182026059624,0.24080182026059624,0.0
-0.9924999999999997,0.2598624912084563,0.2598624912084563,0.0
-0.9874999999999989,0.2367604754710184,0.2367604754710184,0.0
-0.9824999999999999,0.2583042612522758,0.2583042612522758,0.0
-0.9774999999999991,0.2327593430674064,0.2327593430674064,0.0
-0.9725000000000001,0.25671587200662077,0.25671587200662077,0.0
-0.9674999999999994,0.22884868853221782,0.22884868853221782,0.0
-0.9625000000000004,0.25391105808549574,0.25391105808549574,0.0
-0.9574999999999996,0.22587297197073763,0.22587297197073763,0.0
-0.9525000000000006,0.25145810254157286,0.25145810254157286,0.0
-0.9474999999999998,0.2249179278040463,0.2249179278040463,0.0
-0.942499999999999,0.24570773134844212,0.24570773134844212,0.0
-0.9375,0.22520946760229946,0.22520946760229946,0.0
-0.9324999999999992,0.23974624512899012,0.23974624512899012,0.0
-0.9275000000000002,0.2282253965497456,0.2282253965497456,0.0
-0.9224999999999994,0.23107042285683654,0.23107042285683654,0.0
-0.9175000000000004,0.23213605108493418,0.23213605108493418,0.0
-0.9124999999999996,0.22066546798814712,0.22066546798814712,0.0
-0.9075000000000006,0.23618744897100363,0.23618744897100363,0.0
-0.9024999999999999,0.2136685128300719,0.2136685128300719,0.0
-0.8974999999999991,0.23603665252363132,0.23603665252363132,0.0
-0.8925000000000001,0.20882292032117503,0.20882292032117503,0.0
-0.8874999999999993,0.2348704933306188,0.2348704933306188,0.0
-0.8825000000000003,0.21217060145284034,0.21217060145284034,0.0
-0.8774999999999995,0.22359091906716996,0.22359091906716996,0.0
-0.8725000000000005,0.2194389902161857,0.2194389902161857,0.0
-0.8674999999999997,0.2125827784089913,0.2125827784089913,0.0
-0.8624999999999989,0.22513909592685902,0.22513909592685902,0.0
-0.8574999999999999,0.20435934547895465,0.20435934547895465,0.0
-0.8524999999999991,0.22410362698823583,0.22410362698823583,0.0
-0.8475000000000001,0.2050127967509013,0.2050127967509013,0.0
-0.8424999999999994,0.21755906117227755,0.21755906117227755,0.0
-0.8375000000000004,0.21044146885630452,0.21044146885630452,0.0
-0.8324999999999996,0.20697315056674143,0.20697315056674143,0.0
-0.8275000000000006,0.21465371628623772,0.21465371628623772,0.0
-0.8224999999999998,0.20192649612801472,0.20192649612801472,0.0
-0.817499999999999,0.21475424725115255,0.21475424725115255,0.0
-0.8125,0.19820685042616437,0.19820685042616437,0.0
-0.8074999999999992,0.2105922653036768,0.2105922653036768,0.0
-0.8025000000000002,0.20495247817195242,0.20495247817195242,0.0
-0.7974999999999994,0.20033810688235973,0.20033810688235973,0.0
-0.7925000000000004,0.20818957524221135,0.20818957524221135,0.0
-0.7874999999999996,0.19316019598743775,0.19316019598743775,0.0
-0.7825000000000006,0.2079080885404497,0.2079080885404497,0.0
-0.7774999999999999,0.19860897428582389,0.19860897428582389,0.0
-0.7724999999999991,0.19753329296123473,0.19753329296123473,0.0
-0.7675000000000001,0.20166511561923606,0.20166511561923606,0.0
-0.7624999999999993,0.19128026694352965,0.19128026694352965,0.0
-0.7575000000000003,0.20204713328591253,0.20204713328591253,0.0
-0.7524999999999995,0.19498985954888842,0.19498985954888842,0.0
-0.7475000000000005,0.19284854999620166,0.19284854999620166,0.0
-0.7424999999999997,0.19738249651386242,0.19738249651386242,0.0
-0.7374999999999989,0.19052628470666808,0.19052628470666808,0.0
-0.7324999999999999,0.19478879761905873,0.19478879761905873,0.0
-0.7274999999999991,0.19205435537337415,0.19205435537337415,0.0
-0.7225000000000001,0.18840508134696424,0.18840508134696424,0.0
-0.7174999999999994,0.1934517357856909,0.1934517357856909,0.0
-0.7125000000000004,0.1892294352592662,0.1892294352592662,0.0
-0.7074999999999996,0.1872087628644772,0.1872087628644772,0.0
-0.7025000000000006,0.189762249373315,0.189762249373315,0.0
-0.6974999999999998,0.18536904620653505,0.18536904620653505,0.0
-0.692499999999999,0.1882944972855579,0.1882944972855579,0.0
-0.6875,0.1858717010311094,0.1858717010311094,0.0
-0.6824999999999992,0.1830970463994589,0.1830970463994589,0.0
-0.6775000000000002,0.18642462133814122,0.18642462133814122,0.0
-0.6724999999999994,0.18274518802225684,0.18274518802225684,0.0
-0.6675000000000004,0.18221237390820802,0.18221237390820802,0.0
-0.6624999999999996,0.18457485158370754,0.18457485158370754,0.0
-0.6575000000000006,0.181800196952057,0.181800196952057,0.0
-0.6524999999999999,0.17995042719762339,0.17995042719762339,0.0
-0.6474999999999991,0.18152876334678686,0.18152876334678686,0.0
-0.6425000000000001,0.17955835643445536,0.17955835643445536,0.0
-0.6374999999999993,0.17771863977651317,0.17771863977651317,0.0
-0.6325000000000003,0.18067425014501043,0.18067425014501043,0.0
-0.6274999999999995,0.17621067530279005,0.17621067530279005,0.0
-0.6225000000000005,0.17567786118874124,0.17567786118874124,0.0
-0.6174999999999997,0.17994037410113187,0.17994037410113187,0.0
-0.6124999999999989,0.17225980838163552,0.17225980838163552,0.0
-0.6074999999999999,0.17574823286418162,0.17574823286418162,0.0
-0.6024999999999991,0.17713556018000692,0.17713556018000692,0.0
-0.5975000000000001,0.16911318917979998,0.16911318917979998,0.0
-0.5924999999999994,0.1772260380484303,0.1772260380484303,0.0
-0.5875000000000004,0.17406936575010326,0.17406936575010326,0.0
-0.5824999999999996,0.16621789739025164,0.16621789739025164,0.0
-0.5775000000000006,0.17698476373263458,0.17698476373263458,0.0
-0.5724999999999998,0.1716264633026718,0.1716264633026718,0.0
-0.567499999999999,0.16320196844280546,0.16320196844280546,0.0
-0.5625,0.17765832119756422,0.17765832119756422,0.0
-0.5574999999999992,0.16825867597802352,0.16825867597802352,0.0
-0.5525000000000002,0.16183474731996317,0.16183474731996317,0.0
-0.5474999999999994,0.17781917074142803,0.17781917074142803,0.0
-0.5425000000000004,0.16446865860073284,0.16446865860073284,0.0
-0.5374999999999996,0.15978391563569974,0.15978391563569974,0.0
-0.5325000000000006,0.17836203795196834,0.17836203795196834,0.0
-0.5274999999999999,0.16080933147783144,0.16080933147783144,0.0
-0.5224999999999991,0.15756218131108105,0.15756218131108105,0.0
-0.5175000000000001,0.1784927282063577,0.1784927282063577,0.0
-0.5124999999999993,0.1583563759339085,0.1583563759339085,0.0
-0.5075000000000003,0.15571241155664736,0.15571241155664736,0.0
-0.5024999999999995,0.17689428586421124,0.17689428586421124,0.0
-0.4975000000000005,0.15782356181985968,0.15782356181985968,0.0
-0.4924999999999997,0.15317903124079255,0.15317903124079255,0.0
-0.48749999999999893,0.17470271082906697,0.17470271082906697,0.0
-0.48249999999999993,0.15901988030234668,0.15901988030234668,0.0
-0.47749999999999915,0.1492382174161295,0.1492382174161295,0.0
-0.47250000000000014,0.17138518898687616,0.17138518898687616,0.0
-0.46749999999999936,0.16204586234628435,0.16204586234628435,0.0
-0.46250000000000036,0.14470427089846874,0.14470427089846874,0.0
-0.4574999999999996,0.16853010958329373,0.16853010958329373,0.0
-0.45250000000000057,0.16530306560952626,0.16530306560952626,0.0
-0.4474999999999998,0.13965761645974212,0.13965761645974212,0.0
-0.442499999999999,0.16507184439022207,0.16507184439022207,0.0
-0.4375,0.16769570257450025,0.16769570257450025,0.0
-0.4324999999999992,0.13863220061761036,0.13863220061761036,0.0
-0.4275000000000002,0.16019609259185072,0.16019609259185072,0.0
-0.42249999999999943,0.16865074674119154,0.16865074674119154,0.0
-0.4175000000000004,0.14136664286329492,0.14136664286329492,0.0
-0.41249999999999964,0.1524149959074395,0.1524149959074395,0.0
-0.40750000000000064,0.16770575567099172,0.16770575567099172,0.0
-0.40249999999999986,0.14480480186338357,0.14480480186338357,0.0
-0.3974999999999991,0.14445294348618154,0.14445294348618154,0.0
-0.39250000000000007,0.1681078795306513,0.1681078795306513,0.0
-0.3874999999999993,0.146463562784479,0.146463562784479,0.0
-0.3825000000000003,0.13999942174045268,0.13999942174045268,0.0
-0.3774999999999995,0.16563481779374536,0.16563481779374536,0.0
-0.3725000000000005,0.15166101367057797,0.15166101367057797,0.0
-0.3674999999999997,0.13751630690705527,0.13751630690705527,0.0
-0.36249999999999893,0.1543451904338051,0.1543451904338051,0.0
-0.35749999999999993,0.15910030507427858,0.15910030507427858,0.0
-0.35249999999999915,0.13672211228422776,0.13672211228422776,0.0
-0.34750000000000014,0.1470265361880023,0.1470265361880023,0.0
-0.34249999999999936,0.16295064103051826,0.16295064103051826,0.0
-0.33750000000000036,0.13712423614388727,0.13712423614388727,0.0
-0.3324999999999996,0.14237195251244364,0.14237195251244364,0.0
-0.32750000000000057,0.15575262394261336,0.15575262394261336,0.0
-0.3224999999999998,0.1467953149686981,0.1467953149686981,0.0
-0.317499999999999,0.13653110345088953,0.13653110345088953,0.0
-0.3125,0.14737839456520435,0.14737839456520435,0.0
-0.3074999999999992,0.15636586282859405,0.15636586282859405,0.0
-0.3025000000000002,0.13190667906480533,0.13190667906480533,0.0
-0.29749999999999943,0.1450259699861963,0.1450259699861963,0.0
-0.2925000000000004,0.15072607569686963,0.15072607569686963,0.0
-0.28749999999999964,0.14142696144224387,0.14142696144224387,0.0
-0.28250000000000064,0.13622951055614493,0.13622951055614493,0.0
-0.27749999999999986,0.14660430613535982,0.14660430613535982,0.0
-0.2724999999999991,0.1485244475652339,0.1485244475652339,0.0
-0.26750000000000007,0.13187651977533085,0.13187651977533085,0.0
-0.2624999999999993,0.14361853647738806,0.14361853647738806,0.0
-0.2575000000000003,0.14373917363528593,0.14373917363528593,0.0
-0.2524999999999995,0.14113542164399073,0.14113542164399073,0.0
-0.2475000000000005,0.13223843124902443,0.13223843124902443,0.0
-0.24249999999999972,0.14636303181956414,0.14636303181956414,0.0
-0.23749999999999893,0.14148728002119276,0.14148728002119276,0.0
-0.23249999999999993,0.13490250181926858,0.13490250181926858,0.0
-0.22749999999999915,0.13629988223158532,0.13629988223158532,0.0
-0.22250000000000014,0.14158781098610762,0.14158781098610762,0.0
-0.21749999999999936,0.14008989960887602,0.14008989960887602,0.0
-0.21250000000000036,0.1298759535735249,0.1298759535735249,0.0
-0.20749999999999957,0.1418491914948863,0.1418491914948863,0.0
-0.20250000000000057,0.13733535117020848,0.13733535117020848,0.0
-0.1974999999999998,0.13802901482812113,0.13802901482812113,0.0
-0.192499999999999,0.12722193609977225,0.12722193609977225,0.0
-0.1875,0.14056239514397595,0.14056239514397595,0.0
-0.18249999999999922,0.13716444852985324,0.13716444852985324,0.0
-0.1775000000000002,0.13430936912627084,0.13430936912627084,0.0
-0.17249999999999943,0.12772459092434663,0.12772459092434663,0.0
-0.16750000000000043,0.13928565188955705,0.13928565188955705,0.0
-0.16249999999999964,0.1374962007140723,0.1374962007140723,0.0
-0.15750000000000064,0.12676954675765534,0.12676954675765534,0.0
-0.15249999999999986,0.13085110393319918,0.13085110393319918,0.0
-0.14749999999999908,0.13775758122285098,0.13775758122285098,0.0
-0.14250000000000007,0.13723482020529362,0.13723482020529362,0.0
-0.1374999999999993,0.12155198967857342,0.12155198967857342,0.0
-0.13250000000000028,0.1296246261612377,0.1296246261612377,0.0
-0.1274999999999995,0.14045181108256957,0.14045181108256957,0.0
-0.1225000000000005,0.13292204181044556,0.13292204181044556,0.0
-0.11749999999999972,0.11989322875747799,0.11989322875747799,0.0
-0.11249999999999893,0.12846852006471668,0.12846852006471668,0.0
-0.10749999999999993,0.142502642766833,0.142502642766833,0.0
-0.10249999999999915,0.1291621837226293,0.1291621837226293,0.0
-0.09750000000000014,0.11651538833633823,0.11651538833633823,0.0
-0.09249999999999936,0.1286896881875294,0.1286896881875294,0.0
-0.08750000000000036,0.14174866052997148,0.14174866052997148,0.0
-0.08249999999999957,0.12665896269624896,0.12665896269624896,0.0
-0.07750000000000057,0.11382115847661967,0.11382115847661967,0.0
-0.07249999999999979,0.12927276778403568,0.12927276778403568,0.0
-0.067499999999999,0.1400999527053675,0.1400999527053675,0.0
-0.0625,0.12506052035410245,0.12506052035410245,0.0
-0.05749999999999922,0.111951282529203,0.111951282529203,0.0
-0.05250000000000021,0.12873995366998686,0.12873995366998686,0.0
-0.04749999999999943,0.13863220061761036,0.13863220061761036,0.0
-0.042500000000000426,0.12365308684529423,0.12365308684529423,0.0
-0.037499999999999645,0.11071475166075007,0.11071475166075007,0.0
-0.03250000000000064,0.12597535213482783,0.12597535213482783,0.0
-0.027499999999999858,0.1393861828544719,0.1393861828544719,0.0
-0.022499999999999076,0.12159220206453936,0.12159220206453936,0.0
-0.01750000000000007,0.11099623836251173,0.11099623836251173,0.0
-0.01249999999999929,0.12169273302945424,0.12169273302945424,0.0
-0.007500000000000284,0.14011000580185898,0.14011000580185898,0.0
-0.0024999999999995026,0.11888791910832927,0.11888791910832927,0.0
0.0024999999999995026,0.11260473380114969,0.11260473380114969,0.0
0.007500000000000284,0.11681698123108288,0.11681698123108288,0.0
0.012500000000001066,0.13981846600360587,0.13981846600360587,0.0
0.01750000000000007,0.1182545740293656,0.1182545740293656,0.0
0.022500000000000853,0.11345924700292608,0.11345924700292608,0.0
0.027499999999999858,0.1118909639502541,0.1118909639502541,0.0
0.03250000000000064,0.13754646619652972,0.13754646619652972,0.0
0.037499999999999645,0.12079800744171185,0.12079800744171185,0.0
0.042500000000000426,0.11245393735377736,0.11245393735377736,0.0
0.04749999999999943,0.11125761887129039,0.11125761887129039,0.0
0.05250000000000021,0.13163524545953517,0.13163524545953517,0.0
0.057500000000000995,0.123049901055805,0.123049901055805,0.0
0.0625,0.11107666313444359,0.11107666313444359,0.0
0.06750000000000078,0.11063432688881815,0.11063432688881815,0.0
0.07249999999999979,0.125050467257611,0.125050467257611,0.0
0.07750000000000057,0.12314037892422842,0.12314037892422842,0.0
0.08249999999999957,0.11375078680117924,0.11375078680117924,0.0
0.08750000000000036,0.10929726505545037,0.10929726505545037,0.0
0.09249999999999936,0.11895829078376967,0.11895829078376967,0.0
0.09750000000000014,0.12469860888040893,0.12469860888040893,0.0
