omega,S,S_edge,S_cont,Sr,Sr_edge,Sr_cont
-1.5425000000000004,0.0,0.0,0.0
-1.5374999999999996,0.003201911232538719,0.003201911232538719,0.0
-1.5325000000000006,0.01376206077831545,0.01376206077831545,0.0
-1.5274999999999999,0.03345073609762782,0.03345073609762782,0.0
-1.522499999999999,0.092809244331615,0.092809244331615,0.0
-1.5175,0.15618553541027802,0.15618553541027802,0.0
-1.5124999999999993,0.3242550875105556,0.3242550875105556,0.0
-1.5075000000000003,0.5893825738471632,0.5893825738471632,0.0
-1.5024999999999995,0.8664402582857779,0.8664402582857779,0.0
-1.4975000000000005,1.16143172438741,1.16143172438741,0.0
-1.4924999999999997,1.3558708627441243,1.3558708627441243,0.0
-1.4875000000000007,1.3762522592435535,1.3762522592435535,0.0
-1.4825,1.3067646279758622,1.3067646279758622,0.0
-1.4774999999999991,1.175778749717824,1.175778749717824,0.0
-1.4725000000000001,1.0197625461515745,1.0197625461515745,0.0
-1.4674999999999994,0.9054943390403488,0.9054943390403488,0.0
-1.4625000000000004,0.8204897533380469,0.8204897533380469,0.0
-1.4574999999999996,0.7659495057568705,0.7659495057568705,0.0
-1.4525000000000006,0.72440162875388,0.72440162875388,0.0
-1.4474999999999998,0.6840236808550865,0.6840236808550865,0.0
-1.442499999999999,0.6558530195303468,0.6558530195303468,0.0
-1.4375,0.6389814103435081,0.6389814103435081,0.0
-1.4324999999999992,0.6141050230753227,0.6141050230753227,0.0
-1.4275000000000002,0.5870427156387694,0.5870427156387694,0.0
-1.4224999999999994,0.5813162205498059,0.5813162205498059,0.0
-1.4175000000000004,0.565060363523071,0.565060363523071,0.0
-1.4124999999999996,0.5490969887723851,0.5490969887723851,0.0
-1.4075000000000006,0.5415386310071133,0.5415386310071133,0.0
-1.4024999999999999,0.5232507918520366,0.5232507918520366,0.0
-1.397499999999999,0.5164775180908968,0.5164775180908968,0.0
-1.3925,0.5110742928859877,0.5110742928859877,0.0
-1.3874999999999993,0.504008536848799,0.504008536848799,0.0
-1.3825000000000003,0.4867674763658981,0.4867674763658981,0.0
-1.3774999999999995,0.48105637508093724,0.48105637508093724,0.0
-1.3725000000000005,0.48624408702981015,0.48624408702981015,0.0
-1.3674999999999997,0.4625684164738268,0.4625684164738268,0.0
-1.362499999999999,0.47556078705201266,0.47556078705201266,0.0
-1.3575,0.45105385107988943,0.45105385107988943,0.0
-1.3524999999999991,0.4602747396774408,0.4602747396774408,0.0
-1.3475000000000001,0.4455428692469621,0.4455428692469621,0.0
-1.3424999999999994,0.44314143582255816,0.44314143582255816,0.0
-1.3375000000000004,0.4436494313546437,0.4436494313546437,0.0
-1.3324999999999996,0.42907149896419094,0.42907149896419094,0.0
-1.3275000000000006,0.4416790244423121,0.4416790244423121,0.0
-1.3224999999999998,0.4211590837068596,0.4211590837068596,0.0
-1.317499999999999,0.43231959160873745,0.43231959160873745,0.0
-1.3125,0.4138470268056294,0.4138470268056294,0.0
-1.3074999999999992,0.4237298489752922,0.4237298489752922,0.0
-1.3025000000000002,0.40738162912454157,0.40738162912454157,0.0
-1.2974999999999994,0.4165101548980774,0.4165101548980774,0.0
-1.2925000000000004,0.40103938187547444,0.40103938187547444,0.0
-1.2874999999999996,0.41158413761724866,0.41158413761724866,0.0
-1.2825000000000006,0.39400441344629095,0.39400441344629095,0.0
-1.2774999999999999,0.40679666457244307,0.40679666457244307,0.0
-1.272499999999999,0.3893708784415113,0.3893708784415113,0.0
-1.2675,0.40268651890375157,0.40268651890375157,0.0
-1.2624999999999993,0.38349044531252197,0.38349044531252197,0.0
-1.2575000000000003,0.3989766121391275,0.3989766121391275,0.0
-1.2524999999999995,0.37894927313175786,0.37894927313175786,0.0
-1.2475000000000005,0.3957900947105914,0.3957900947105914,0.0
-1.2424999999999997,0.3741618000869523,0.3741618000869523,0.0
-1.237499999999999,0.39174152425791015,0.39174152425791015,0.0
-1.2325,0.3678965218578983,0.3678965218578983,0.0
-1.2274999999999991,0.39015596244564343,0.39015596244564343,0.0
-1.2225000000000001,0.36323219924511346,0.36323219924511346,0.0
-1.2174999999999994,0.38726192729315645,0.38726192729315645,0.0
-1.2125000000000004,0.3598301685605412,0.3598301685605412,0.0
-1.2074999999999996,0.38349044531252197,0.38349044531252197,0.0
-1.2025000000000006,0.35807527490424584,0.35807527490424584,0.0
-1.1974999999999998,0.37834891477565685,0.37834891477565685,0.0
-1.192499999999999,0.35339555848745846,0.35339555848745846,0.0
-1.1875,0.3752547601711363,0.3752547601711363,0.0
-1.1824999999999992,0.3511172754950752,0.3511172754950752,0.0
-1.1775000000000002,0.3654335132174839,0.3654335132174839,0.0
-1.1724999999999994,0.3569515272120568,0.3569515272120568,0.0
-1.1675000000000004,0.35562766006783403,0.35562766006783403,0.0
-1.1624999999999996,0.36415582748526887,0.36415582748526887,0.0
-1.1575000000000006,0.35013207203890945,0.35013207203890945,0.0
-1.1524999999999999,0.3676040395818491,0.3676040395818491,0.0
-1.147499999999999,0.34394376282986827,0.34394376282986827,0.0
-1.1425,0.36648029188965997,0.36648029188965997,0.0
-1.1374999999999993,0.33600055996453176,0.33600055996453176,0.0
-1.1325000000000003,0.36218542057293734,0.36218542057293734,0.0
-1.1274999999999995,0.3315825382157885,0.3315825382157885,0.0
-1.1225000000000005,0.35630498744394795,0.35630498744394795,0.0
-1.1174999999999997,0.3361544980045577,0.3361544980045577,0.0
-1.112499999999999,0.3499011649788706,0.3499011649788706,0.0
-1.1075,0.3458064131141816,0.3458064131141816,0.0
-1.1024999999999991,0.3431894664337413,0.3431894664337413,0.0
-1.0975000000000001,0.3478691828505287,0.3478691828505287,0.0
-1.0924999999999994,0.3354002016084308,0.3354002016084308,0.0
-1.0875000000000004,0.34628362103826194,0.34628362103826194,0.0
-1.0824999999999996,0.3280111756871876,0.3280111756871876,0.0
-1.0775000000000006,0.34899293054271774,0.34899293054271774,0.0
-1.0724999999999998,0.3286115340432885,0.3286115340432885,0.0
-1.067499999999999,0.3423889886256066,0.3423889886256066,0.0
-1.0625,0.3337838521881588,0.3337838521881588,0.0
-1.0574999999999992,0.3330449495960345,0.3330449495960345,0.0
-1.0525000000000002,0.335015356508366,0.335015356508366,0.0
-1.0474999999999994,0.3296121313034569,0.3296121313034569,0.0
-1.0425000000000004,0.33807872350488144,0.33807872350488144,0.0
-1.0374999999999996,0.32891941012334036,0.32891941012334036,0.0
-1.0325000000000006,0.3347844494483272,0.3347844494483272,0.0
-1.0274999999999999,0.32565592367479135,0.32565592367479135,0.0
-1.022499999999999,0.3264717952869286,0.3264717952869286,0.0
-1.0175,0.32505556531869034,0.32505556531869034,0.0
-1.0124999999999993,0.3294735870674336,0.3294735870674336,0.0
-1.0075000000000003,0.33364530795213554,0.33364530795213554,0.0
-1.0024999999999995,0.32340842829041316,0.32340842829041316,0.0
-0.9975000000000005,0.32525568477072403,0.32525568477072403,0.0
-0.9924999999999997,0.32442441935458416,0.32442441935458416,0.0
-0.9874999999999989,0.3198216719578097,0.3198216719578097,0.0
-0.9824999999999999,0.3212225081220453,0.3212225081220453,0.0
-0.9774999999999991,0.3278264500391565,0.3278264500391565,0.0
-0.9725000000000001,0.32774948101914353,0.32774948101914353,0.0
-0.9674999999999994,0.3185747738335999,0.3185747738335999,0.0
-0.9625000000000004,0.3143568715368903,0.3143568715368903,0.0
-0.9574999999999996,0.32028348607788737,0.32028348607788737,0.0
-0.9525000000000006,0.31689684919731764,0.31689684919731764,0.0
-0.9474999999999998,0.32805735709919537,0.32805735709919537,0.0
-0.942499999999999,0.31692763680532277,0.31692763680532277,0.0
-0.9375,0.3122787079965406,0.3122787079965406,0.0
-0.9324999999999992,0.32079148160997284,0.32079148160997284,0.0
-0.9275000000000002,0.3075989915797533,0.3075989915797533,0.0
-0.9224999999999994,0.3248246582586514,0.3248246582586514,0.0
-0.9175000000000004,0.31386426980880733,0.31386426980880733,0.0
-0.9124999999999996,0.31448002196891095,0.31448002196891095,0.0
-0.9075000000000006,0.3171893314733668,0.3171893314733668,0.0
-0.9024999999999999,0.30247285484689085,0.30247285484689085,0.0
-0.8974999999999991,0.32447060076659184,0.32447060076659184,0.0
-0.8925000000000001,0.30448944317123,0.30448944317123,0.0
-0.8874999999999993,0.3169122430013202,0.3169122430013202,0.0
-0.8825000000000003,0.31352560612075037,0.31352560612075037,0.0
-0.8774999999999995,0.2983011339621889,0.2983011339621889,0.0
-0.8725000000000005,0.325856043126825,0.325856043126825,0.0
-0.8674999999999997,0.2953455235936916,0.2953455235936916,0.0
-0.8624999999999989,0.3192521012097138,0.3192521012097138,0.0
-0.8574999999999999,0.31016975684818576,0.31016975684818576,0.0
-0.8524999999999991,0.2938061431934326,0.2938061431934326,0.0
-0.8475000000000001,0.32965831271546464,0.32965831271546464,0.0
-0.8424999999999994,0.2856012456600521,0.2856012456600521,0.0
-0.8375000000000004,0.31863634904961025,0.31863634904961025,0.0
-0.8324999999999996,0.3116475620324344,0.3116475620324344,0.0
-0.8275000000000006,0.2859091217401039,0.2859091217401039,0.0
-0.8224999999999998,0.33301416198802936,0.33301416198802936,0.0
-0.817499999999999,0.27848930821085555,0.27848930821085555,0.0
-0.8125,0.3161579466051933,0.3161579466051933,0.0
-0.8074999999999992,0.3152958935810482,0.3152958935810482,0.0
-0.8025000000000002,0.2769807154186017,0.2769807154186017,0.0
-0.7974999999999994,0.33752454656078823,0.33752454656078823,0.0
-0.7925000000000004,0.27419443689413286,0.27419443689413286,0.0
-0.7874999999999996,0.3080300180918258,0.3080300180918258,0.0
-0.7825000000000006,0.3228234637383148,0.3228234637383148,0.0
-0.7774999999999999,0.26712868085694413,0.26712868085694413,0.0
-0.7724999999999991,0.33783242264084,0.33783242264084,0.0
-0.7675000000000001,0.2766266579265421,0.2766266579265421,0.0
-0.7624999999999993,0.29577655010576415,0.29577655010576415,0.0
-0.7575000000000003,0.32992000738350874,0.32992000738350874,0.0
-0.7524999999999995,0.259662685915688,0.259662685915688,0.0
-0.7475000000000005,0.33412251587621583,0.33412251587621583,0.0
-0.7424999999999997,0.2864171172721894,0.2864171172721894,0.0
-0.7374999999999989,0.2770268968306095,0.2770268968306095,0.0
-0.7324999999999999,0.3422812319975885,0.3422812319975885,0.0
-0.7274999999999991,0.2534435890986416,0.2534435890986416,0.0
-0.7225000000000001,0.3223462558142345,0.3223462558142345,0.0
-0.7174999999999994,0.30461259360325077,0.30461259360325077,0.0
-0.7125000000000004,0.2549675756948981,0.2549675756948981,0.0
-0.7074999999999996,0.35088636843503634,0.35088636843503634,0.0
-0.7025000000000006,0.255906597739056,0.255906597739056,0.0
-0.6974999999999998,0.2977777446261008,0.2977777446261008,0.0
-0.692499999999999,0.33398397164019245,0.33398397164019245,0.0
-0.6875,0.23615634720373302,0.23615634720373302,0.0
-0.6824999999999992,0.3453292051901013,0.3453292051901013,0.0
-0.6775000000000002,0.27584157392241004,0.27584157392241004,0.0
-0.6724999999999994,0.26287999095222936,0.26287999095222936,0.0
-0.6675000000000004,0.35436536813962166,0.35436536813962166,0.0
-0.6624999999999996,0.23718773207190655,0.23718773207190655,0.0
-0.6575000000000006,0.316619760725271,0.316619760725271,0.0
-0.6524999999999999,0.31626570323321135,0.31626570323321135,0.0
-0.6474999999999991,0.23029130787874627,0.23029130787874627,0.0
-0.6425000000000001,0.3601842260526007,0.3601842260526007,0.0
-0.6374999999999993,0.25253535466248883,0.25253535466248883,0.0
-0.6325000000000003,0.2691760567892886,0.2691760567892886,0.0
-0.6274999999999995,0.3558123857158651,0.3558123857158651,0.0
-0.6225000000000005,0.222640587289459,0.222640587289459,0.0
-0.6174999999999997,0.3273800297230814,0.3273800297230814,0.0
-0.6124999999999989,0.306890876595634,0.306890876595634,0.0
-0.6074999999999999,0.22670455154614283,0.22670455154614283,0.0
-0.6024999999999991,0.36752707056183614,0.36752707056183614,0.0
-0.5975000000000001,0.2392505018082537,0.2392505018082537,0.0
-0.5924999999999994,0.2668054109728898,0.2668054109728898,0.0
-0.5875000000000004,0.3622623895929503,0.3622623895929503,0.0
-0.5824999999999996,0.21066420777544398,0.21066420777544398,0.0
-0.5775000000000006,0.32728766689906585,0.32728766689906585,0.0
-0.5724999999999998,0.3068139075756211,0.3068139075756211,0.0
-0.567499999999999,0.21937710084090994,0.21937710084090994,0.0
-0.5625,0.3725762382746856,0.3725762382746856,0.0
-0.5574999999999992,0.2351865375515699,0.2351865375515699,0.0
-0.5525000000000002,0.2555679340509991,0.2555679340509991,0.0
-0.5474999999999994,0.3750854283271078,0.3750854283271078,0.0
-0.5425000000000004,0.20127398733386404,0.20127398733386404,0.0
-0.5374999999999996,0.31309457960867787,0.31309457960867787,0.0
-0.5325000000000006,0.3219921983221749,0.3219921983221749,0.0
-0.5274999999999999,0.20727757089487422,0.20727757089487422,0.0
-0.5224999999999991,0.3690664509620951,0.3690664509620951,0.0
-0.5175000000000001,0.2461161383934088,0.2461161383934088,0.0
-0.5124999999999993,0.23735706391593506,0.23735706391593506,0.0
-0.5075000000000003,0.38867815726139476,0.38867815726139476,0.0
-0.5024999999999995,0.19627100103302236,0.19627100103302236,0.0
-0.4975000000000005,0.28324599364765585,0.28324599364765585,0.0
-0.4924999999999997,0.3544115495516294,0.3544115495516294,0.0
-0.48749999999999893,0.19539355420487473,0.19539355420487473,0.0
-0.48249999999999993,0.3428200151376791,0.3428200151376791,0.0
-0.47749999999999915,0.2800286886111146,0.2800286886111146,0.0
-0.47250000000000014,0.21331194206388945,0.21331194206388945,0.0
-0.46749999999999936,0.3930499975981303,0.3930499975981303,0.0
-0.46250000000000036,0.20929415921921352,0.20929415921921352,0.0
-0.4574999999999996,0.24639322686545542,0.24639322686545542,0.0
-0.45250000000000057,0.39049462613370034,0.39049462613370034,0.0
-0.4474999999999998,0.18073865279440904,0.18073865279440904,0.0
-0.442499999999999,0.29626915183384694,0.29626915183384694,0.0
-0.4375,0.3398490109651793,0.3398490109651793,0.0
-0.4324999999999992,0.1909601386521288,0.1909601386521288,0.0
-0.4275000000000002,0.35798291208023025,0.35798291208023025,0.0
-0.42249999999999943,0.26280302193221633,0.26280302193221633,0.0
-0.4175000000000004,0.21071038918745177,0.21071038918745177,0.0
-0.41249999999999964,0.39962315190723624,0.39962315190723624,0.0
-0.40750000000000064,0.19676360276110524,0.19676360276110524,0.0
-0.40249999999999986,0.24239083782478205,0.24239083782478205,0.0
-0.3974999999999991,0.3953436743945162,0.3953436743945162,0.0
-0.39250000000000007,0.17065571117271264,0.17065571117271264,0.0
-0.3874999999999993,0.2919742805171244,0.2919742805171244,0.0
-0.3825000000000003,0.3504399481189612,0.3504399481189612,0.0
-0.3774999999999995,0.1777522548179066,0.1777522548179066,0.0
-0.3725000000000005,0.3475767005744795,0.3475767005744795,0.0
-0.3674999999999997,0.2782430073468141,0.2782430073468141,0.0
-0.36249999999999893,0.19725620448918812,0.19725620448918812,0.0
-0.35749999999999993,0.3932039356381563,0.3932039356381563,0.0
-0.35249999999999915,0.2120342563316745,0.2120342563316745,0.0
-0.34750000000000014,0.22013139723703684,0.22013139723703684,0.0
-0.34249999999999936,0.40835143877670477,0.40835143877670477,0.0
-0.33750000000000036,0.16894699892842518,0.16894699892842518,0.0
-0.3324999999999996,0.2630955042082656,0.2630955042082656,0.0
-0.32750000000000057,0.38207421534428354,0.38207421534428354,0.0
-0.3224999999999998,0.15712455745443601,0.15712455745443601,0.0
-0.317499999999999,0.31828229155755067,0.31828229155755067,0.0
-0.3125,0.32862692784729114,0.32862692784729114,0.0
-0.3074999999999992,0.16399019403959111,0.16399019403959111,0.0
-0.3025000000000002,0.36691131840173247,0.36691131840173247,0.0
-0.29749999999999943,0.26585099512472915,0.26585099512472915,0.0
-0.2925000000000004,0.18583400191926636,0.18583400191926636,0.0
-0.28749999999999964,0.397190930874827,0.397190930874827,0.0
-0.28250000000000064,0.21195728731166155,0.21195728731166155,0.0
-0.27749999999999986,0.20793950446698553,0.20793950446698553,0.0
-0.2724999999999991,0.4086901024647618,0.4086901024647618,0.0
-0.26750000000000007,0.17298017557710374,0.17298017557710374,0.0
-0.2624999999999993,0.24345301030096067,0.24345301030096067,0.0
-0.2575000000000003,0.39962315190723624,0.39962315190723624,0.0
-0.2524999999999995,0.14662598312466965,0.14662598312466965,0.0
-0.2475000000000005,0.2918203424770985,0.2918203424770985,0.0
-0.24249999999999972,0.3642174027012792,0.3642174027012792,0.0
-0.23749999999999893,0.13877514308334876,0.13877514308334876,0.0
-0.23249999999999993,0.3447288468340003,0.3447288468340003,0.0
-0.22749999999999915,0.30940006664805625,0.30940006664805625,0.0
-0.22250000000000014,0.14750342995281726,0.14750342995281726,0.0
-0.21749999999999936,0.3867231441530658,0.3867231441530658,0.0
-0.21250000000000036,0.2571381020592632,0.2571381020592632,0.0
-0.20749999999999957,0.15952599087884006,0.15952599087884006,0.0
-0.20250000000000057,0.4098138501569508,0.4098138501569508,0.0
-0.1974999999999998,0.21814559652070276,0.21814559652070276,0.0
-0.192499999999999,0.17862970164605424,0.17862970164605424,0.0
-0.1875,0.4196197033066006,0.4196197033066006,0.0
-0.18249999999999922,0.1839405640269478,0.1839405640269478,0.0
-0.1775000000000002,0.2081396239190193,0.2081396239190193,0.0
-0.17249999999999943,0.4168026371741267,0.4168026371741267,0.0
-0.16750000000000043,0.15496942489407345,0.15496942489407345,0.0
-0.16249999999999964,0.242390837824782,0.242390837824782,0.0
-0.15750000000000064,0.40368711616391995,0.40368711616391995,0.0
-0.15249999999999986,0.1350036611027142,0.1350036611027142,0.0
-0.14749999999999908,0.2815988566193787,0.2815988566193787,0.0
-0.14250000000000007,0.3794264810558382,0.3794264810558382,0.0
-0.1374999999999993,0.1217803834644894,0.1217803834644894,0.0
-0.13250000000000028,0.32377787958647525,0.32377787958647525,0.0
-0.1274999999999995,0.3449443600900366,0.3449443600900366,0.0
-0.1225000000000005,0.11616164500354402,0.11616164500354402,0.0
-0.11749999999999972,0.3604459207206447,0.3604459207206447,0.0
-0.11249999999999893,0.31027751347620386,0.31027751347620386,0.0
-0.10749999999999993,0.11556128664744303,0.11556128664744303,0.0
-0.10249999999999915,0.39060238276171844,0.39060238276171844,0.0
-0.09750000000000014,0.2767959897705707,0.2767959897705707,0.0
-0.09249999999999936,0.11993312698417859,0.11993312698417859,0.0
-0.08750000000000036,0.413523756921575,0.413523756921575,0.0
-0.08249999999999957,0.24636243925745022,0.24636243925745022,0.0
-0.07750000000000057,0.12649088748928194,0.12649088748928194,0.0
-0.07249999999999979,0.4329815251808487,0.4329815251808487,0.0
-0.067499999999999,0.21831492836473124,0.21831492836473124,0.0
-0.0625,0.13457263459064167,0.13457263459064167,0.0
-0.05749999999999922,0.44851387341946203,0.44851387341946203,0.0
-0.05250000000000021,0.1920838863443179,0.1920838863443179,0.0
-0.04749999999999943,0.14716476626476027,0.14716476626476027,0.0
-0.042500000000000426,0.45436351894044624,0.45436351894044624,0.0
-0.037499999999999645,0.17221048537697417,0.17221048537697417,0.0
-0.03250000000000064,0.1618966366952389,0.1618966366952389,0.0
-0.027499999999999858,0.4538247358003557,0.4538247358003557,0.0
-0.022499999999999076,0.15750940255450074,0.15750940255450074,0.0
-0.01750000000000007,0.1757664541015725,0.1757664541015725,0.0
-0.01249999999999929,0.45097688205987635,0.45097688205987635,0.0
-0.007500000000000284,0.14581011151253237,0.14581011151253237,0.0
-0.0024999999999995026,0.19074462539609258,0.19074462539609258,0.0
0.0024999999999995026,0.4461432276030631,0.4461432276030631,0.0
0.007500000000000284,0.13471117882666497,0.13471117882666497,0.0
0.012500000000001066,0.2040448720543303,0.2040448720543303,0.0
0.01750000000000007,0.4428489535465089,0.4428489535465089,0.0
0.022500000000000853,0.12450508677294782,0.12450508677294782,0.0
0.027499999999999858,0.2156056188602754,0.2156056188602754,0.0
0.03250000000000064,0.43978558654999345,0.43978558654999345,0.0
0.037499999999999645,0.11579219370748191,0.11579219370748191,0.0
0.042500000000000426,0.2228561005454953,0.2228561005454953,0.0
0.04749999999999943,0.4392929848219107,0.4392929848219107,0.0
0.05250000000000021,0.10869565006228792,0.10869565006228792,0.0
0.057500000000000995,0.227674361198306,0.227674361198306,0.0
