i,theta,chi2_min,chi2_avg,edge_p,edge_n,Ap_p,Ap_n,Ac_p,Ac_n
1.0,15.0,12.8244,25.466,0.8021,-0.7974,0.0609,0.1891,0.1765,0.5735
2.0,14.2857,12.6678,22.7351,0.8092,-0.8005,0.0595,0.1905,0.1779,0.5721
3.0,13.6054,12.2161,22.3088,0.796,-0.8036,0.059,0.191,0.1782,0.5718
4.0,12.9576,11.9821,20.9051,0.8008,-0.8025,0.0585,0.1915,0.1787,0.5713
5.0,12.3405,11.9821,20.4729,0.8147,-0.7968,0.0587,0.1913,0.1786,0.5714
6.0,11.7529,9.8062,17.9525,0.8168,-0.8052,0.0583,0.1917,0.1791,0.5709
7.0,11.1932,9.8062,17.5463,0.8064,-0.807,0.0571,0.1929,0.1802,0.5698
8.0,10.6602,9.8062,16.6823,0.8004,-0.8003,0.0586,0.1914,0.1788,0.5712
9.0,10.1526,7.8977,15.2508,0.8155,-0.8041,0.0584,0.1916,0.1789,0.5711
10.0,9.6691,7.5551,13.396,0.8116,-0.8051,0.057,0.193,0.1803,0.5697
11.0,9.2087,7.1498,13.9227,0.8118,-0.8153,0.0556,0.1944,0.1815,0.5685
12.0,8.7702,7.1498,13.2558,0.8108,-0.7997,0.056,0.194,0.1812,0.5688
13.0,8.3526,7.1354,11.9852,0.8046,-0.8111,0.0555,0.1945,0.1818,0.5682
14.0,7.9548,7.1354,12.5516,0.8129,-0.8021,0.0559,0.1941,0.1812,0.5688
15.0,7.576,6.8344,11.8293,0.8099,-0.8076,0.0541,0.1959,0.183,0.567
16.0,7.2153,6.8344,11.6001,0.8012,-0.8037,0.0543,0.1957,0.183,0.567
17.0,6.8717,6.3949,10.7911,0.7976,-0.8114,0.0535,0.1965,0.1837,0.5663
18.0,6.5445,6.3949,9.8997,0.8036,-0.813,0.0541,0.1959,0.1831,0.5669
19.0,6.2328,5.5511,9.3348,0.818,-0.8104,0.0544,0.1956,0.1828,0.5672
20.0,5.936,5.5511,9.9151,0.8142,-0.8079,0.0547,0.1953,0.1825,0.5675
21.0,5.6533,5.5511,9.2936,0.8045,-0.8132,0.0543,0.1957,0.1829,0.5671
22.0,5.3841,5.5511,9.2374,0.8104,-0.8079,0.0543,0.1957,0.183,0.567
23.0,5.1277,4.9643,7.7732,0.8061,-0.817,0.0546,0.1954,0.1826,0.5674
24.0,4.8836,4.9643,7.9192,0.8043,-0.8135,0.0554,0.1946,0.1818,0.5682
25.0,4.651,4.5977,7.3657,0.8214,-0.8126,0.0559,0.1941,0.1813,0.5687
26.0,4.4295,4.2932,6.7353,0.8275,-0.8125,0.0564,0.1936,0.1809,0.5691
27.0,4.2186,4.2932,6.6597,0.8119,-0.8153,0.0561,0.1939,0.1811,0.5689
28.0,4.0177,4.2932,7.3544,0.8198,-0.812,0.0567,0.1933,0.1805,0.5695
29.0,3.8264,4.1804,7.0204,0.8299,-0.8124,0.0564,0.1936,0.1808,0.5692
30.0,3.6442,4.1804,6.6437,0.8274,-0.8183,0.056,0.194,0.1811,0.5689
31.0,3.4707,3.8716,6.44,0.825,-0.8133,0.056,0.194,0.1813,0.5687
32.0,3.3054,3.2978,5.3736,0.8185,-0.814,0.0559,0.1941,0.1813,0.5687
33.0,3.148,3.2978,5.8262,0.8174,-0.8117,0.0558,0.1942,0.1814,0.5686
34.0,2.9981,3.2978,5.564,0.8186,-0.8152,0.0556,0.1944,0.1815,0.5685
35.0,2.8553,3.2978,5.4367,0.8288,-0.8131,0.0554,0.1946,0.1817,0.5683
36.0,2.7194,3.2978,5.3524,0.8119,-0.8177,0.0554,0.1946,0.1816,0.5684
37.0,2.5899,3.2925,4.7369,0.8207,-0.8182,0.0552,0.1948,0.1818,0.5682
38.0,2.4665,3.2925,5.6233,0.8165,-0.8129,0.0556,0.1944,0.1814,0.5686
39.0,2.3491,3.181,4.8781,0.8096,-0.819,0.0552,0.1948,0.1819,0.5681
40.0,2.2372,3.181,4.584,0.8249,-0.8202,0.0549,0.1951,0.1821,0.5679
41.0,2.1307,2.8475,4.45,0.8266,-0.8218,0.0553,0.1947,0.1818,0.5682
42.0,2.0292,2.8475,4.4928,0.8236,-0.8161,0.0557,0.1943,0.1814,0.5686
43.0,1.9326,2.8196,3.9009,0.8256,-0.8233,0.0553,0.1947,0.1819,0.5681
44.0,1.8406,2.7426,4.2179,0.8215,-0.8188,0.0546,0.1954,0.1825,0.5675
45.0,1.7529,2.4603,3.8091,0.8264,-0.8197,0.0543,0.1957,0.1828,0.5672
46.0,1.6694,2.2681,3.3437,0.8335,-0.8187,0.0543,0.1957,0.1828,0.5672
47.0,1.59,2.211,3.3221,0.8283,-0.8201,0.0545,0.1955,0.1826,0.5674
48.0,1.5142,2.0599,3.6646,0.8169,-0.8215,0.0547,0.1953,0.1823,0.5677
49.0,1.4421,2.0599,3.3483,0.8316,-0.8214,0.0551,0.1949,0.182,0.568
50.0,1.3735,2.0599,3.1982,0.8214,-0.8208,0.0551,0.1949,0.1819,0.5681
51.0,1.3081,2.0599,3.2223,0.8206,-0.8211,0.0549,0.1951,0.1822,0.5678
52.0,1.2458,2.0599,3.0795,0.8264,-0.8196,0.0552,0.1948,0.1819,0.5681
53.0,1.1864,2.0599,3.0344,0.8286,-0.817,0.0554,0.1946,0.1817,0.5683
54.0,1.1299,1.8379,2.605,0.8349,-0.828,0.0547,0.1953,0.1824,0.5676
55.0,1.0761,1.752,2.5552,0.8312,-0.8235,0.0551,0.1949,0.182,0.568
56.0,1.0249,1.5678,2.4296,0.8328,-0.8242,0.0549,0.1951,0.1822,0.5678
57.0,0.9761,1.5678,2.1938,0.8275,-0.8223,0.055,0.195,0.1821,0.5679
58.0,0.9296,1.5678,2.4219,0.8275,-0.8222,0.0554,0.1946,0.1817,0.5683
59.0,0.8853,1.5678,2.3559,0.8348,-0.8196,0.0557,0.1943,0.1814,0.5686
60.0,0.8432,1.5678,2.3249,0.8354,-0.8231,0.0559,0.1941,0.1812,0.5688
61.0,0.803,1.5678,2.0065,0.838,-0.828,0.0555,0.1945,0.1816,0.5684
62.0,0.7648,1.5678,1.9539,0.8328,-0.8262,0.0554,0.1946,0.1816,0.5684
63.0,0.7284,1.4776,1.8805,0.8276,-0.8312,0.0551,0.1949,0.182,0.568
64.0,0.6937,1.3874,1.7717,0.8329,-0.8247,0.0554,0.1946,0.1816,0.5684
65.0,0.6607,1.3631,1.7741,0.833,-0.8297,0.0553,0.1947,0.1817,0.5683
66.0,0.6292,1.1582,1.6411,0.8416,-0.8318,0.0554,0.1946,0.1817,0.5683
67.0,0.5992,1.1292,1.5544,0.829,-0.8329,0.0551,0.1949,0.182,0.568
68.0,0.5707,1.1292,1.5501,0.8316,-0.8288,0.0554,0.1946,0.1816,0.5684
69.0,0.5435,1.1292,1.7156,0.8299,-0.8294,0.0552,0.1948,0.1818,0.5682
70.0,0.5176,1.1292,1.5475,0.8316,-0.8294,0.0552,0.1948,0.1818,0.5682
71.0,0.493,1.1292,1.3714,0.828,-0.8315,0.0551,0.1949,0.182,0.568
72.0,0.4695,1.0931,1.4148,0.8329,-0.8342,0.055,0.195,0.1821,0.5679
73.0,0.4472,1.0931,1.4302,0.8375,-0.8308,0.0552,0.1948,0.1818,0.5682
74.0,0.4259,1.0931,1.3648,0.8396,-0.8267,0.0557,0.1943,0.1814,0.5686
75.0,0.4056,1.0931,1.3716,0.8395,-0.8233,0.0559,0.1941,0.1811,0.5689
76.0,0.3863,1.0652,1.3988,0.837,-0.8263,0.0559,0.1941,0.1811,0.5689
77.0,0.3679,1.0652,1.3395,0.835,-0.8255,0.056,0.194,0.181,0.569
78.0,0.3504,1.0652,1.2842,0.8397,-0.8285,0.0558,0.1942,0.1813,0.5687
79.0,0.3337,0.9897,1.2006,0.8348,-0.8333,0.0557,0.1943,0.1814,0.5686
80.0,0.3178,0.9336,1.1569,0.8329,-0.8319,0.0559,0.1941,0.1811,0.5689
81.0,0.3027,0.9336,1.1733,0.8345,-0.8306,0.0561,0.1939,0.1809,0.5691
82.0,0.2882,0.9336,1.1299,0.8377,-0.8318,0.0562,0.1938,0.1809,0.5691
83.0,0.2745,0.9336,1.0912,0.8401,-0.8317,0.0562,0.1938,0.1808,0.5692
84.0,0.2614,0.8987,1.0158,0.8387,-0.8345,0.0562,0.1938,0.1809,0.5691
85.0,0.249,0.8763,1.01,0.8389,-0.8347,0.056,0.194,0.181,0.569
86.0,0.2371,0.8264,0.9699,0.8479,-0.8327,0.056,0.194,0.181,0.569
87.0,0.2258,0.8264,0.9596,0.8402,-0.8353,0.056,0.194,0.1811,0.5689
88.0,0.2151,0.8264,1.0297,0.8429,-0.8309,0.0561,0.1939,0.1809,0.5691
89.0,0.2048,0.8264,0.9928,0.8401,-0.8313,0.0562,0.1938,0.1809,0.5691
90.0,0.1951,0.8264,0.9701,0.8397,-0.8322,0.0561,0.1939,0.1809,0.5691
91.0,0.1858,0.8264,0.9762,0.8403,-0.8326,0.0562,0.1938,0.1809,0.5691
92.0,0.177,0.823,0.9043,0.8365,-0.8382,0.056,0.194,0.1811,0.5689
93.0,0.1685,0.8089,0.8874,0.8396,-0.836,0.0561,0.1939,0.181,0.569
94.0,0.1605,0.8049,0.8938,0.8422,-0.8346,0.056,0.194,0.181,0.569
95.0,0.1529,0.7875,0.8848,0.8401,-0.8344,0.0562,0.1938,0.1809,0.5691
96.0,0.1456,0.7875,0.9257,0.8376,-0.8341,0.0561,0.1939,0.181,0.569
97.0,0.1386,0.7875,0.8816,0.8432,-0.8355,0.0561,0.1939,0.1809,0.5691
98.0,0.132,0.7721,0.8566,0.8461,-0.833,0.0563,0.1937,0.1807,0.5693
99.0,0.1258,0.748,0.8144,0.8428,-0.8315,0.0564,0.1936,0.1807,0.5693
100.0,0.1198,0.7449,0.8013,0.8459,-0.8342,0.0564,0.1936,0.1807,0.5693
101.0,0.1141,0.7449,0.8031,0.8463,-0.8343,0.0562,0.1938,0.1808,0.5692
102.0,0.1086,0.7203,0.7796,0.8506,-0.8345,0.0562,0.1938,0.1808,0.5692
103.0,0.1035,0.7076,0.7717,0.8518,-0.8345,0.0563,0.1937,0.1808,0.5692
104.0,0.0985,0.7076,0.7637,0.8474,-0.8357,0.0563,0.1937,0.1807,0.5693
105.0,0.0938,0.6995,0.7741,0.8454,-0.8362,0.0562,0.1938,0.1808,0.5692
106.0,0.0894,0.6995,0.7624,0.8521,-0.8337,0.0565,0.1935,0.1806,0.5694
107.0,0.0851,0.6995,0.7592,0.8534,-0.834,0.0565,0.1935,0.1806,0.5694
108.0,0.0811,0.6995,0.7561,0.8485,-0.8343,0.0566,0.1934,0.1804,0.5696
109.0,0.0772,0.6995,0.7543,0.8479,-0.8334,0.0566,0.1934,0.1804,0.5696
110.0,0.0735,0.6995,0.7562,0.8475,-0.8336,0.0567,0.1933,0.1804,0.5696
111.0,0.07,0.6995,0.7515,0.8439,-0.8344,0.0567,0.1933,0.1804,0.5696
112.0,0.0667,0.6995,0.7542,0.8432,-0.8355,0.0566,0.1934,0.1805,0.5695
113.0,0.0635,0.6961,0.7275,0.8491,-0.836,0.0566,0.1934,0.1805,0.5695
114.0,0.0605,0.6961,0.7318,0.8497,-0.8341,0.0566,0.1934,0.1805,0.5695
115.0,0.0576,0.6919,0.7216,0.8507,-0.8354,0.0566,0.1934,0.1804,0.5696
116.0,0.0549,0.6908,0.7174,0.8503,-0.8354,0.0566,0.1934,0.1805,0.5695
117.0,0.0523,0.69,0.7197,0.8562,-0.8342,0.0565,0.1935,0.1805,0.5695
118.0,0.0498,0.6886,0.7209,0.8551,-0.8336,0.0565,0.1935,0.1806,0.5694
119.0,0.0474,0.6886,0.7177,0.8569,-0.8334,0.0565,0.1935,0.1805,0.5695
120.0,0.0451,0.6835,0.7184,0.8575,-0.8359,0.0565,0.1935,0.1806,0.5694
121.0,0.043,0.6814,0.7,0.8559,-0.8358,0.0565,0.1935,0.1805,0.5695
122.0,0.0409,0.6802,0.7017,0.8542,-0.8358,0.0566,0.1934,0.1805,0.5695
123.0,0.039,0.6763,0.697,0.8541,-0.8366,0.0565,0.1935,0.1805,0.5695
124.0,0.0371,0.6763,0.6993,0.8534,-0.8357,0.0566,0.1934,0.1804,0.5696
125.0,0.0354,0.6753,0.6894,0.8558,-0.8374,0.0566,0.1934,0.1804,0.5696
126.0,0.0337,0.6718,0.6879,0.8563,-0.8388,0.0566,0.1934,0.1804,0.5696
127.0,0.0321,0.6685,0.6807,0.8521,-0.8394,0.0566,0.1934,0.1804,0.5696
128.0,0.0306,0.6675,0.6802,0.8539,-0.8377,0.0567,0.1933,0.1803,0.5697
129.0,0.0291,0.6675,0.6863,0.8549,-0.8373,0.0568,0.1932,0.1803,0.5697
130.0,0.0277,0.6642,0.6808,0.8522,-0.839,0.0567,0.1933,0.1803,0.5697
131.0,0.0264,0.6604,0.672,0.855,-0.8387,0.0567,0.1933,0.1803,0.5697
132.0,0.0251,0.6604,0.6758,0.8534,-0.8391,0.0567,0.1933,0.1803,0.5697
133.0,0.0239,0.6604,0.6738,0.8535,-0.8388,0.0567,0.1933,0.1803,0.5697
134.0,0.0228,0.6596,0.6672,0.8541,-0.8384,0.0568,0.1932,0.1802,0.5698
135.0,0.0217,0.6556,0.6688,0.8536,-0.839,0.0568,0.1932,0.1802,0.5698
136.0,0.0207,0.6556,0.6691,0.853,-0.8391,0.0568,0.1932,0.1803,0.5697
137.0,0.0197,0.6556,0.6744,0.8548,-0.837,0.0569,0.1931,0.1801,0.5699
138.0,0.0188,0.6556,0.6669,0.856,-0.8373,0.0569,0.1931,0.1801,0.5699
139.0,0.0179,0.6556,0.6667,0.8545,-0.8367,0.0569,0.1931,0.1801,0.5699
140.0,0.017,0.6535,0.6629,0.8531,-0.835,0.057,0.193,0.18,0.57
141.0,0.0162,0.6535,0.6666,0.8532,-0.8354,0.0569,0.1931,0.1801,0.5699
142.0,0.0154,0.6534,0.6592,0.8549,-0.8347,0.057,0.193,0.18,0.57
143.0,0.0147,0.6534,0.6641,0.853,-0.8352,0.0569,0.1931,0.1801,0.5699
144.0,0.014,0.6534,0.6607,0.8512,-0.8358,0.0569,0.1931,0.1801,0.5699
145.0,0.0133,0.651,0.6587,0.85,-0.8367,0.0569,0.1931,0.1801,0.5699
146.0,0.0127,0.6493,0.6595,0.8514,-0.8369,0.0569,0.1931,0.1801,0.5699
147.0,0.0121,0.6493,0.6572,0.8506,-0.8369,0.0568,0.1932,0.1802,0.5698
148.0,0.0115,0.6483,0.654,0.8531,-0.8378,0.0568,0.1932,0.1802,0.5698
149.0,0.011,0.6466,0.653,0.8543,-0.8372,0.0568,0.1932,0.1802,0.5698
150.0,0.0104,0.6462,0.6518,0.855,-0.8367,0.0569,0.1931,0.1801,0.5699
151.0,0.0099,0.6444,0.6481,0.8537,-0.8369,0.0569,0.1931,0.1801,0.5699
152.0,0.0095,0.6444,0.6503,0.8554,-0.8374,0.0569,0.1931,0.1801,0.5699
153.0,0.009,0.6441,0.6503,0.8545,-0.8385,0.0568,0.1932,0.1801,0.5699
154.0,0.0086,0.6441,0.6503,0.8535,-0.8388,0.0568,0.1932,0.1802,0.5698
155.0,0.0082,0.6441,0.6504,0.855,-0.8397,0.0568,0.1932,0.1802,0.5698
156.0,0.0078,0.6441,0.6483,0.855,-0.8396,0.0568,0.1932,0.1802,0.5698
157.0,0.0074,0.6424,0.6446,0.8526,-0.8398,0.0568,0.1932,0.1802,0.5698
158.0,0.0071,0.6424,0.6466,0.8538,-0.8398,0.0568,0.1932,0.1802,0.5698
159.0,0.0067,0.6424,0.646,0.8531,-0.8398,0.0569,0.1931,0.1801,0.5699
160.0,0.0064,0.6424,0.6472,0.8524,-0.8399,0.0569,0.1931,0.1801,0.5699
161.0,0.0061,0.6424,0.6462,0.8513,-0.84,0.0569,0.1931,0.1801,0.5699
162.0,0.0058,0.6424,0.6454,0.8502,-0.8391,0.0569,0.1931,0.1801,0.5699
163.0,0.0055,0.6416,0.6449,0.8494,-0.8385,0.0569,0.1931,0.1801,0.5699
164.0,0.0053,0.6415,0.6438,0.8505,-0.8384,0.0569,0.1931,0.1801,0.5699
165.0,0.005,0.641,0.6435,0.8499,-0.8387,0.0569,0.1931,0.1801,0.5699
166.0,0.0048,0.6405,0.6434,0.8499,-0.839,0.0569,0.1931,0.1801,0.5699
167.0,0.0046,0.6405,0.6432,0.8492,-0.8392,0.0569,0.1931,0.1801,0.5699
168.0,0.0043,0.6405,0.6428,0.8499,-0.8389,0.0569,0.1931,0.1801,0.5699
169.0,0.0041,0.6392,0.641,0.8499,-0.8389,0.0569,0.1931,0.1801,0.5699
170.0,0.0039,0.6392,0.6407,0.8497,-0.8382,0.057,0.193,0.18,0.57
171.0,0.0037,0.6387,0.6402,0.8496,-0.8382,0.057,0.193,0.18,0.57
172.0,0.0036,0.6387,0.6409,0.8492,-0.8381,0.0569,0.1931,0.18,0.57
173.0,0.0034,0.6383,0.6397,0.85,-0.838,0.0569,0.1931,0.18,0.57
174.0,0.0032,0.6381,0.6393,0.8498,-0.8376,0.057,0.193,0.18,0.57
175.0,0.0031,0.6362,0.6374,0.8496,-0.8374,0.057,0.193,0.1799,0.5701
176.0,0.0029,0.6362,0.6379,0.8498,-0.8369,0.057,0.193,0.1799,0.5701
177.0,0.0028,0.6362,0.6385,0.8498,-0.8366,0.057,0.193,0.1799,0.5701
178.0,0.0027,0.6362,0.6378,0.8492,-0.8361,0.0571,0.1929,0.1799,0.5701
179.0,0.0025,0.6362,0.6375,0.8491,-0.8362,0.0571,0.1929,0.1799,0.5701
180.0,0.0024,0.636,0.6375,0.8497,-0.8363,0.0571,0.1929,0.1799,0.5701
181.0,0.0023,0.636,0.6374,0.8509,-0.8359,0.0571,0.1929,0.1799,0.5701
182.0,0.0022,0.6359,0.6367,0.8498,-0.836,0.0571,0.1929,0.1799,0.5701
