omega,S,S_edge,S_cont,Sr,Sr_edge,Sr_cont
-1.5574999999999992,0.0,0.0,0.0
-1.5525000000000002,0.0021309422969299574,0.0021309422969299574,0.0
-1.5474999999999994,0.018986215201969917,0.018986215201969917,0.0
-1.5425000000000004,0.057823840222708346,0.057823840222708346,0.0
-1.5374999999999996,0.15450132758868854,0.15450132758868854,0.0
-1.5325000000000006,0.2764136579446287,0.2764136579446287,0.0
-1.5274999999999999,0.46193381475780165,0.46193381475780165,0.0
-1.522499999999999,0.6784567786729253,0.6784567786729253,0.0
-1.5175,0.9275046513306641,0.9275046513306641,0.0
-1.5124999999999993,1.1332767710259384,1.1332767710259384,0.0
-1.5075000000000003,1.21630340999354,1.21630340999354,0.0
-1.5024999999999995,1.223833807584195,1.223833807584195,0.0
-1.4975000000000005,1.1337414125794043,1.1337414125794043,0.0
-1.4924999999999997,1.0031931581780114,1.0031931581780114,0.0
-1.4875000000000007,0.8776598281295434,0.8776598281295434,0.0
-1.4825,0.7854845571954227,0.7854845571954227,0.0
-1.4774999999999991,0.7242640269956528,0.7242640269956528,0.0
-1.4725000000000001,0.68390430033425,0.68390430033425,0.0
-1.4674999999999994,0.651539612816968,0.651539612816968,0.0
-1.4625000000000004,0.6270578095860734,0.6270578095860734,0.0
-1.4574999999999996,0.5941003035350589,0.5941003035350589,0.0
-1.4525000000000006,0.5840223884616083,0.5840223884616083,0.0
-1.4474999999999998,0.5644593768484393,0.5644593768484393,0.0
-1.442499999999999,0.5438549272706052,0.5438549272706052,0.0
-1.4375,0.5415797858708754,0.5415797858708754,0.0
-1.4324999999999992,0.5202543407790425,0.5202543407790425,0.0
-1.4275000000000002,0.5192449470594441,0.5192449470594441,0.0
-1.4224999999999994,0.4985283426238769,0.4985283426238769,0.0
-1.4175000000000004,0.4958846924058811,0.4958846924058811,0.0
-1.4124999999999996,0.4902609273966901,0.4902609273966901,0.0
-1.4075000000000006,0.4747354906619147,0.4747354906619147,0.0
-1.4024999999999999,0.47444709245631517,0.47444709245631517,0.0
-1.397499999999999,0.463984646442065,0.463984646442065,0.0
-1.3925,0.4655387923277959,0.4655387923277959,0.0
-1.3874999999999993,0.44363655082476394,0.44363655082476394,0.0
-1.3825000000000003,0.46206199173806806,0.46206199173806806,0.0
-1.3774999999999995,0.42761442829145596,0.42761442829145596,0.0
-1.3725000000000005,0.4545476162699466,0.4545476162699466,0.0
-1.3674999999999997,0.4244260259073277,0.4244260259073277,0.0
-1.362499999999999,0.44007963962236957,0.44007963962236957,0.0
-1.3575,0.42391331798626186,0.42391331798626186,0.0
-1.3524999999999991,0.42104535805279975,0.42104535805279975,0.0
-1.3475000000000001,0.42714978673799014,0.42714978673799014,0.0
-1.3424999999999994,0.405087324009625,0.405087324009625,0.0
-1.3375000000000004,0.42557961872972583,0.42557961872972583,0.0
-1.3324999999999996,0.3945447673827084,0.3945447673827084,0.0
-1.3275000000000006,0.42162215446399876,0.42162215446399876,0.0
-1.3224999999999998,0.38999448458324887,0.38999448458324887,0.0
-1.317499999999999,0.4163668982730738,0.4163668982730738,0.0
-1.3125,0.38483536112752376,0.38483536112752376,0.0
-1.3074999999999992,0.41210501367921387,0.41210501367921387,0.0
-1.3025000000000002,0.37849060060433376,0.37849060060433376,0.0
-1.2974999999999994,0.40878843431481904,0.40878843431481904,0.0
-1.2925000000000004,0.37217788432621046,0.37217788432621046,0.0
-1.2874999999999996,0.40377350996189376,0.40377350996189376,0.0
-1.2825000000000006,0.3691817474124819,0.3691817474124819,0.0
-1.2774999999999999,0.39891880683430136,0.39891880683430136,0.0
-1.272499999999999,0.3660093671508869,0.3660093671508869,0.0
-1.2675,0.3954740504896401,0.3954740504896401,0.0
-1.2624999999999993,0.363205495707558,0.363205495707558,0.0
-1.2575000000000003,0.3921414490027122,0.3921414490027122,0.0
-1.2524999999999995,0.36200383651755985,0.36200383651755985,0.0
-1.2475000000000005,0.3857806663569888,0.3857806663569888,0.0
-1.2424999999999997,0.36272483203155875,0.36272483203155875,0.0
-1.237499999999999,0.3753983309554054,0.3753983309554054,0.0
-1.2325,0.3665701414395527,0.3665701414395527,0.0
-1.2274999999999991,0.3605938897346288,0.3605938897346288,0.0
-1.2225000000000001,0.37357180898660824,0.37357180898660824,0.0
-1.2174999999999994,0.3480966341586486,0.3480966341586486,0.0
-1.2125000000000004,0.3817110472335287,0.3817110472335287,0.0
-1.2074999999999996,0.34340215225638937,0.34340215225638937,0.0
-1.2025000000000006,0.3849154717401902,0.3849154717401902,0.0
-1.1974999999999998,0.3400375065243947,0.3400375065243947,0.0
-1.192499999999999,0.3776894944776684,0.3776894944776684,0.0
-1.1875,0.34312977617332313,0.34312977617332313,0.0
-1.1824999999999992,0.3589115668686315,0.3589115668686315,0.0
-1.1775000000000002,0.3548259256226379,0.3548259256226379,0.0
-1.1724999999999994,0.34059828081306043,0.34059828081306043,0.0
-1.1675000000000004,0.37160108791501134,0.37160108791501134,0.0
-1.1624999999999996,0.329751303858011,0.329751303858011,0.0
-1.1575000000000006,0.3784104899916672,0.3784104899916672,0.0
-1.1524999999999999,0.3301037905537438,0.3301037905537438,0.0
-1.147499999999999,0.36386240273142356,0.36386240273142356,0.0
-1.1425,0.3409988338763931,0.3409988338763931,0.0
-1.1374999999999993,0.3386435818639969,0.3386435818639969,0.0
-1.1325000000000003,0.35758173069836685,0.35758173069836685,0.0
-1.1274999999999995,0.32653085722881603,0.32653085722881603,0.0
-1.1225000000000005,0.3680601988351503,0.3680601988351503,0.0
-1.1174999999999997,0.3221247735321564,0.3221247735321564,0.0
-1.112499999999999,0.36072206671489526,0.36072206671489526,0.0
-1.1075,0.33926844464279593,0.33926844464279593,0.0
-1.1024999999999991,0.3290463304665454,0.3290463304665454,0.0
-1.0975000000000001,0.3537524434129063,0.3537524434129063,0.0
-1.0924999999999994,0.32077891523935853,0.32077891523935853,0.0
-1.0875000000000004,0.3601773145487628,0.3601773145487628,0.0
-1.0824999999999996,0.3225413487180224,0.3225413487180224,0.0
-1.0775000000000006,0.34556513879838596,0.34556513879838596,0.0
-1.0724999999999998,0.34436347960838787,0.34436347960838787,0.0
-1.067499999999999,0.3151711723527007,0.3151711723527007,0.0
-1.0625,0.35553089901410345,0.35553089901410345,0.0
-1.0574999999999992,0.3165650970130985,0.3165650970130985,0.0
-1.0525000000000002,0.3458054706363856,0.3458054706363856,0.0
-1.0474999999999994,0.33343639204067177,0.33343639204067177,0.0
-1.0425000000000004,0.32207670716455644,0.32207670716455644,0.0
-1.0374999999999996,0.3498270233922458,0.3498270233922458,0.0
-1.0325000000000006,0.30898663305484386,0.30898663305484386,0.0
-1.0274999999999999,0.3465745325179843,0.3465745325179843,0.0
-1.022499999999999,0.3234706318249542,0.3234706318249542,0.0
-1.0175,0.32670710057668245,0.32670710057668245,0.0
-1.0124999999999993,0.3483209438741149,0.3483209438741149,0.0
-1.0075000000000003,0.30156839032192223,0.30156839032192223,0.0
-1.0024999999999995,0.35025962070064515,0.35025962070064515,0.0
-0.9975000000000005,0.3146264201865683,0.3146264201865683,0.0
-0.9924999999999997,0.3243518485642861,0.3243518485642861,0.0
-0.9874999999999989,0.3447960769167871,0.3447960769167871,0.0
-0.9824999999999999,0.30015844353899124,0.30015844353899124,0.0
-0.9774999999999991,0.3514773020131765,0.3514773020131765,0.0
-0.9725000000000001,0.30733635443391316,0.30733635443391316,0.0
-0.9674999999999994,0.3217883089589569,0.3217883089589569,0.0
-0.9625000000000004,0.34239275853679096,0.34239275853679096,0.0
-0.9574999999999996,0.2964092668661971,0.2964092668661971,0.0
-0.9525000000000006,0.35383255402557284,0.35383255402557284,0.0
-0.9474999999999998,0.30206507612045486,0.30206507612045486,0.0
-0.942499999999999,0.31701371644403115,0.31701371644403115,0.0
-0.9375,0.3433701080113227,0.3433701080113227,0.0
-0.9324999999999992,0.2909297009598058,0.2909297009598058,0.0
-0.9275000000000002,0.3554507884014369,0.3554507884014369,0.0
-0.9224999999999994,0.2991810940644594,0.2991810940644594,0.0
-0.9175000000000004,0.3115181284151065,0.3115181284151065,0.0
-0.9124999999999996,0.34514856361251994,0.34514856361251994,0.0
-0.9075000000000006,0.2848733386422154,0.2848733386422154,0.0
-0.9024999999999999,0.3564762042435686,0.3564762042435686,0.0
-0.8974999999999991,0.29879656312366004,0.29879656312366004,0.0
-0.8925000000000001,0.30376342110898547,0.30376342110898547,0.0
-0.8874999999999993,0.34888171816278063,0.34888171816278063,0.0
-0.8825000000000003,0.27716669770369423,0.27716669770369423,0.0
-0.8774999999999995,0.3566043812238351,0.3566043812238351,0.0
-0.8725000000000005,0.30156839032192234,0.30156839032192234,0.0
-0.8674999999999997,0.2948390988579329,0.2948390988579329,0.0
-0.8624999999999989,0.3525187399778416,0.3525187399778416,0.0
-0.8574999999999999,0.2711584017537038,0.2711584017537038,0.0
-0.8524999999999991,0.351605478993443,0.351605478993443,0.0
-0.8475000000000001,0.3093711639956433,0.3093711639956433,0.0
-0.8424999999999994,0.28240593177208595,0.28240593177208595,0.0
-0.8375000000000004,0.3612347746359611,0.3612347746359611,0.0
-0.8324999999999996,0.26428491118691466,0.26428491118691466,0.0
-0.8275000000000006,0.3419120948607917,0.3419120948607917,0.0
-0.8224999999999998,0.3195131675592272,0.3195131675592272,0.0
-0.817499999999999,0.27053353897490473,0.27053353897490473,0.0
-0.8125,0.3692137916575485,0.3692137916575485,0.0
-0.8074999999999992,0.2674733135710429,0.2674733135710429,0.0
-0.8025000000000002,0.3218684195716235,0.3218684195716235,0.0
-0.7974999999999994,0.33338832567307186,0.33338832567307186,0.0
-0.7925000000000004,0.2568346242089265,0.2568346242089265,0.0
-0.7874999999999996,0.37137677819954507,0.37137677819954507,0.0
-0.7825000000000006,0.2796501266963569,0.2796501266963569,0.0
-0.7774999999999999,0.2953357846564655,0.2953357846564655,0.0
-0.7724999999999991,0.3538005097805062,0.3538005097805062,0.0
-0.7675000000000001,0.243440129771081,0.243440129771081,0.0
-0.7624999999999993,0.36307731872729154,0.36307731872729154,0.0
-0.7575000000000003,0.3011197708909896,0.3011197708909896,0.0
-0.7524999999999995,0.2682744196977084,0.2682744196977084,0.0
-0.7475000000000005,0.37084804815594585,0.37084804815594585,0.0
-0.7424999999999997,0.2463721781946764,0.2463721781946764,0.0
-0.7374999999999989,0.3342054539222705,0.3342054539222705,0.0
-0.7324999999999999,0.3276363836836143,0.3276363836836143,0.0
-0.7274999999999991,0.24174178478255037,0.24174178478255037,0.0
-0.7225000000000001,0.380269056205531,0.380269056205531,0.0
-0.7174999999999994,0.26716889324291004,0.26716889324291004,0.0
-0.7125000000000004,0.29205124953713735,0.29205124953713735,0.0
-0.7074999999999996,0.3624684780710258,0.3624684780710258,0.0
-0.7025000000000006,0.22410142787337828,0.22410142787337828,0.0
-0.6974999999999998,0.3666182078071526,0.3666182078071526,0.0
-0.692499999999999,0.3005429744797906,0.3005429744797906,0.0
-0.6875,0.2500412442548039,0.2500412442548039,0.0
-0.6824999999999992,0.3839381222656585,0.3839381222656585,0.0
-0.6775000000000002,0.2363903958564255,0.2363903958564255,0.0
-0.6724999999999994,0.3193048799662942,0.3193048799662942,0.0
-0.6675000000000004,0.34751983774744954,0.34751983774744954,0.0
-0.6624999999999996,0.21568981354339162,0.21568981354339162,0.0
-0.6575000000000006,0.3842906089613913,0.3842906089613913,0.0
-0.6524999999999999,0.28054736555822224,0.28054736555822224,0.0
-0.6474999999999991,0.2575235754778587,0.2575235754778587,0.0
-0.6425000000000001,0.38765525469338596,0.38765525469338596,0.0
-0.6374999999999993,0.21278980936486291,0.21278980936486291,0.0
-0.6325000000000003,0.33950877648079547,0.33950877648079547,0.0
-0.6274999999999995,0.335166781274269,0.335166781274269,0.0
-0.6225000000000005,0.20839974779073653,0.20839974779073653,0.0
-0.6174999999999997,0.39633924510643886,0.39633924510643886,0.0
-0.6124999999999989,0.26474955274038053,0.26474955274038053,0.0
-0.6074999999999999,0.25975065050998847,0.25975065050998847,0.0
-0.6024999999999991,0.3944326125249752,0.3944326125249752,0.0
-0.5975000000000001,0.19646326650342202,0.19646326650342202,0.0
-0.5924999999999994,0.34735961652211644,0.34735961652211644,0.0
-0.5875000000000004,0.3350866706616025,0.3350866706616025,0.0
-0.5824999999999996,0.19479696575995803,0.19479696575995803,0.0
-0.5775000000000006,0.406337049567223,0.406337049567223,0.0
-0.5724999999999998,0.25689871269905973,0.25689871269905973,0.0
-0.567499999999999,0.25316555814879893,0.25316555814879893,0.0
-0.5625,0.40526356735749125,0.40526356735749125,0.0
-0.5574999999999992,0.18702623633130366,0.18702623633130366,0.0
-0.5525000000000002,0.34181596212559184,0.34181596212559184,0.0
-0.5474999999999994,0.3497148685345127,0.3497148685345127,0.0
-0.5425000000000004,0.17329527732025876,0.17329527732025876,0.0
-0.5374999999999996,0.412008880944014,0.412008880944014,0.0
-0.5325000000000006,0.2650699951910468,0.2650699951910468,0.0
-0.5274999999999999,0.2289401088784373,0.2289401088784373,0.0
-0.5224999999999991,0.42093320319506666,0.42093320319506666,0.0
-0.5175000000000001,0.18806767429596868,0.18806767429596868,0.0
-0.5124999999999993,0.3191126144958945,0.3191126144958945,0.0
-0.5075000000000003,0.378554689094467,0.378554689094467,0.0
-0.5024999999999995,0.14931015988789673,0.14931015988789673,0.0
-0.4975000000000005,0.4043503063730927,0.4043503063730927,0.0
-0.4924999999999997,0.29586451470006464,0.29586451470006464,0.0
-0.48749999999999893,0.1848632497893071,0.1848632497893071,0.0
-0.48249999999999993,0.43945477684357054,0.43945477684357054,0.0
-0.47749999999999915,0.20694173464020552,0.20694173464020552,0.0
-0.47250000000000014,0.2719114415127693,0.2719114415127693,0.0
-0.46749999999999936,0.416479053130807,0.416479053130807,0.0
-0.46250000000000036,0.1435582178984392,0.1435582178984392,0.0
-0.4574999999999996,0.36799611034501706,0.36799611034501706,0.0
-0.45250000000000057,0.3501314437203787,0.3501314437203787,0.0
-0.4474999999999998,0.134185276216454,0.134185276216454,0.0
-0.442499999999999,0.4447580994020954,0.4447580994020954,0.0
-0.4375,0.2556329650189284,0.2556329650189284,0.0
-0.4324999999999992,0.19399585963329263,0.19399585963329263,0.0
-0.4275000000000002,0.4533619792024819,0.4533619792024819,0.0
-0.42249999999999943,0.17257428180625994,0.17257428180625994,0.0
-0.4175000000000004,0.2969860632773962,0.2969860632773962,0.0
-0.41249999999999964,0.4110155093469489,0.4110155093469489,0.0
-0.40750000000000064,0.11813110943807946,0.11813110943807946,0.0
-0.40249999999999986,0.39622709024870567,0.39622709024870567,0.0
-0.3974999999999991,0.3373137456937323,0.3373137456937323,0.0
-0.39250000000000007,0.11535928223981724,0.11535928223981724,0.0
-0.3874999999999993,0.46521834987712973,0.46521834987712973,0.0
-0.3825000000000003,0.24523460749481152,0.24523460749481152,0.0
-0.3774999999999995,0.17827815742811756,0.17827815742811756,0.0
-0.3725000000000005,0.47462333580418165,0.47462333580418165,0.0
-0.3674999999999997,0.16140686240054428,0.16140686240054428,0.0
-0.36249999999999893,0.2858026217491473,0.2858026217491473,0.0
-0.35749999999999993,0.42586801693532544,0.42586801693532544,0.0
-0.35249999999999915,0.10476865924530067,0.10476865924530067,0.0
-0.34750000000000014,0.3928944887617776,0.3928944887617776,0.0
-0.34249999999999936,0.3537043770453064,0.3537043770453064,0.0
-0.33750000000000036,0.08520564763213166,0.08520564763213166,0.0
-0.3324999999999996,0.47201172983125234,0.47201172983125234,0.0
-0.32750000000000057,0.26753740206117615,0.26753740206117615,0.0
-0.3224999999999998,0.13050018803379326,0.13050018803379326,0.0
-0.317499999999999,0.5043443731034678,0.5043443731034678,0.0
-0.3125,0.17513782141158918,0.17513782141158918,0.0
-0.3074999999999992,0.2269213214392405,0.2269213214392405,0.0
-0.3025000000000002,0.4694321681033897,0.4694321681033897,0.0
-0.29749999999999943,0.11359684876115336,0.11359684876115336,0.0
-0.2925000000000004,0.3409828117538598,0.3409828117538598,0.0
-0.28749999999999964,0.4018188110128301,0.4018188110128301,0.0
-0.28250000000000064,0.07136253376335358,0.07136253376335358,0.0
-0.27749999999999986,0.4377243876099733,0.4377243876099733,0.0
-0.2724999999999991,0.3250087555881518,0.3250087555881518,0.0
-0.26750000000000007,0.06871888354535778,0.06871888354535778,0.0
-0.2624999999999993,0.5123874786151883,0.5123874786151883,0.0
-0.2575000000000003,0.23257713069349825,0.23257713069349825,0.0
-0.2524999999999995,0.12492448939220209,0.12492448939220209,0.0
-0.2475000000000005,0.5272399862035649,0.5272399862035649,0.0
-0.24249999999999972,0.15299524807055762,0.15299524807055762,0.0
-0.23749999999999893,0.22302794566364667,0.22302794566364667,0.0
-0.23249999999999993,0.4864957286013628,0.4864957286013628,0.0
-0.22749999999999915,0.09712610679691279,0.09712610679691279,0.0
-0.22250000000000014,0.32930268442707833,0.32930268442707833,0.0
-0.21749999999999936,0.42191055266959837,0.42191055266959837,0.0
-0.21250000000000036,0.05660615891017695,0.05660615891017695,0.0
-0.20749999999999957,0.4314917819445165,0.4314917819445165,0.0
-0.20250000000000057,0.3418480063706585,0.3418480063706585,0.0
-0.1974999999999998,0.044893987338328875,0.044893987338328875,0.0
-0.192499999999999,0.5133167617221203,0.5133167617221203,0.0
-0.1875,0.2542230182359973,0.2542230182359973,0.0
-0.18249999999999922,0.07862055527094212,0.07862055527094212,0.0
-0.1775000000000002,0.5485654312953977,0.5485654312953977,0.0
-0.17249999999999943,0.17720467521838595,0.17720467521838595,0.0
-0.16750000000000043,0.14762783702189944,0.14762783702189944,0.0
-0.16249999999999964,0.5387759144275466,0.5387759144275466,0.0
-0.15750000000000064,0.11643276444954888,0.11643276444954888,0.0
-0.15249999999999986,0.23927437791242093,0.23927437791242093,0.0
-0.14749999999999908,0.49747088253667876,0.49747088253667876,0.0
-0.14250000000000007,0.06710064916949367,0.06710064916949367,0.0
-0.1374999999999993,0.33955684284839543,0.33955684284839543,0.0
-0.13250000000000028,0.4283514459279881,0.4283514459279881,0.0
-0.1274999999999995,0.038068563139139665,0.038068563139139665,0.0
-0.1225000000000005,0.43810891855077266,0.43810891855077266,0.0
-0.11749999999999972,0.3433540858887894,0.3433540858887894,0.0
-0.11249999999999893,0.0314514265328835,0.0314514265328835,0.0
-0.10749999999999993,0.5118427264490558,0.5118427264490558,0.0
-0.10249999999999915,0.26580701282757896,0.26580701282757896,0.0
-0.09750000000000014,0.051543168189651656,0.051543168189651656,0.0
-0.09249999999999936,0.5561599173761856,0.5561599173761856,0.0
-0.08750000000000036,0.19593453645982295,0.19593453645982295,0.0
-0.08249999999999957,0.0967415758561134,0.0967415758561134,0.0
-0.07750000000000057,0.5691057923830984,0.5691057923830984,0.0
-0.07249999999999979,0.1358515769599181,0.1358515769599181,0.0
-0.067499999999999,0.16326542861440801,0.16326542861440801,0.0
-0.0625,0.552266541600592,0.552266541600592,0.0
-0.05749999999999922,0.08597470951373046,0.08597470951373046,0.0
-0.05250000000000021,0.2413252095966844,0.2413252095966844,0.0
-0.04749999999999943,0.510865376974524,0.510865376974524,0.0
-0.042500000000000426,0.049716646220854546,0.049716646220854546,0.0
-0.037499999999999645,0.322365105370156,0.322365105370156,0.0
-0.03250000000000064,0.4514713687435515,0.4514713687435515,0.0
-0.027499999999999858,0.029849214279552696,0.029849214279552696,0.0
-0.022499999999999076,0.39577847081777306,0.39577847081777306,0.0
-0.01750000000000007,0.3893856439269832,0.3893856439269832,0.0
-0.01249999999999929,0.022446993669164438,0.022446993669164438,0.0
-0.007500000000000284,0.46539459322499616,0.46539459322499616,0.0
-0.0024999999999995026,0.3196253224169604,0.3196253224169604,0.0
0.0024999999999995026,0.02864755508955461,0.02864755508955461,0.0
0.007500000000000284,0.5238432962265036,0.5238432962265036,0.0
0.012500000000001066,0.2518837883461344,0.2518837883461344,0.0
0.01750000000000007,0.04840283217312331,0.04840283217312331,0.0
0.022500000000000853,0.5604057798475123,0.5604057798475123,0.0
0.027499999999999858,0.19373950567275977,0.19373950567275977,0.0
0.03250000000000064,0.08110398426360484,0.08110398426360484,0.0
0.037499999999999645,0.5753544201710887,0.5753544201710887,0.0
0.042500000000000426,0.1453526956221697,0.1453526956221697,0.0
