i,theta,chi2_min,chi2_avg,edge_p,edge_n,Ap_p,Ap_n,Ac_p,Ac_n
1.0,15.0,1.0012,13.037,1.0,-1.0,0.7,0.7,0.3,0.3
2.0,13.6364,0.9925,11.0003,1.0,-1.0,0.7,0.7,0.3,0.3
3.0,12.3967,0.8171,10.0601,1.0,-1.0,0.7,0.7,0.3,0.3
4.0,11.2697,0.8171,8.7334,1.0,-1.0,0.7,0.7,0.3,0.3
5.0,10.2452,0.8171,7.4276,1.0,-1.0,0.7,0.7,0.3,0.3
6.0,9.3138,0.8171,6.6038,1.0,-1.0,0.7,0.7,0.3,0.3
7.0,8.4671,0.8171,5.8565,1.0,-1.0,0.7,0.7,0.3,0.3
8.0,7.6974,0.8171,4.9759,1.0,-1.0,0.7,0.7,0.3,0.3
9.0,6.9976,0.8148,4.4919,1.0,-1.0,0.7,0.7,0.3,0.3
10.0,6.3615,0.8121,3.9818,1.0,-1.0,0.7,0.7,0.3,0.3
11.0,5.7831,0.8121,3.3764,1.0,-1.0,0.7,0.7,0.3,0.3
12.0,5.2574,0.8121,3.1069,1.0,-1.0,0.7,0.7,0.3,0.3
13.0,4.7795,0.8121,2.7838,1.0,-1.0,0.7,0.7,0.3,0.3
14.0,4.345,0.8084,2.5098,1.0,-1.0,0.7,0.7,0.3,0.3
15.0,3.95,0.8084,2.3241,1.0,-1.0,0.7,0.7,0.3,0.3
16.0,3.5909,0.8084,2.0881,1.0,-1.0,0.7,0.7,0.3,0.3
17.0,3.2644,0.8084,1.9564,1.0,-1.0,0.7,0.7,0.3,0.3
18.0,2.9677,0.8072,1.8123,1.0,-1.0,0.7,0.7,0.3,0.3
19.0,2.6979,0.8066,1.6339,1.0,-1.0,0.7,0.7,0.3,0.3
20.0,2.4526,0.8066,1.5461,1.0,-1.0,0.7,0.7,0.3,0.3
21.0,2.2297,0.8066,1.432,1.0,-1.0,0.7,0.7,0.3,0.3
22.0,2.027,0.8066,1.3367,1.0,-1.0,0.7,0.7,0.3,0.3
23.0,1.8427,0.8066,1.2902,1.0,-1.0,0.7,0.7,0.3,0.3
24.0,1.6752,0.8065,1.2234,1.0,-1.0,0.7,0.7,0.3,0.3
25.0,1.5229,0.8065,1.1735,1.0,-1.0,0.7,0.7,0.3,0.3
26.0,1.3844,0.8065,1.1042,1.0,-1.0,0.7,0.7,0.3,0.3
27.0,1.2586,0.8055,1.0998,1.0,-1.0,0.7,0.7,0.3,0.3
28.0,1.1442,0.8055,1.0643,1.0,-1.0,0.7,0.7,0.3,0.3
29.0,1.0402,0.8031,1.0106,1.0,-1.0,0.7,0.7,0.3,0.3
30.0,0.9456,0.8031,1.012,1.0,-1.0,0.7,0.7,0.3,0.3
31.0,0.8596,0.8031,0.9822,1.0,-1.0,0.7,0.7,0.3,0.3
32.0,0.7815,0.8031,0.9676,1.0,-1.0,0.7,0.7,0.3,0.3
33.0,0.7104,0.8031,0.9404,1.0,-1.0,0.7,0.7,0.3,0.3
34.0,0.6459,0.801,0.9333,1.0,-1.0,0.7,0.7,0.3,0.3
35.0,0.5871,0.801,0.9171,1.0,-1.0,0.7,0.7,0.3,0.3
36.0,0.5338,0.801,0.9076,1.0,-1.0,0.7,0.7,0.3,0.3
37.0,0.4852,0.801,0.895,1.0,-1.0,0.7,0.7,0.3,0.3
38.0,0.4411,0.801,0.8913,1.0,-1.0,0.7,0.7,0.3,0.3
39.0,0.401,0.801,0.8842,1.0,-1.0,0.7,0.7,0.3,0.3
40.0,0.3646,0.801,0.8761,1.0,-1.0,0.7,0.7,0.3,0.3
41.0,0.3314,0.801,0.8675,1.0,-1.0,0.7,0.7,0.3,0.3
42.0,0.3013,0.801,0.8634,1.0,-1.0,0.7,0.7,0.3,0.3
43.0,0.2739,0.801,0.8593,1.0,-1.0,0.7,0.7,0.3,0.3
44.0,0.249,0.801,0.8547,1.0,-1.0,0.7,0.7,0.3,0.3
45.0,0.2264,0.801,0.8486,1.0,-1.0,0.7,0.7,0.3,0.3
46.0,0.2058,0.801,0.8447,1.0,-1.0,0.7,0.7,0.3,0.3
47.0,0.1871,0.801,0.843,1.0,-1.0,0.7,0.7,0.3,0.3
48.0,0.1701,0.801,0.8403,1.0,-1.0,0.7,0.7,0.3,0.3
49.0,0.1546,0.801,0.8387,1.0,-1.0,0.7,0.7,0.3,0.3
50.0,0.1406,0.801,0.8355,1.0,-1.0,0.7,0.7,0.3,0.3
51.0,0.1278,0.801,0.8343,1.0,-1.0,0.7,0.7,0.3,0.3
52.0,0.1162,0.801,0.831,1.0,-1.0,0.7,0.7,0.3,0.3
53.0,0.1056,0.801,0.8295,1.0,-1.0,0.7,0.7,0.3,0.3
54.0,0.096,0.801,0.8285,1.0,-1.0,0.7,0.7,0.3,0.3
55.0,0.0873,0.801,0.8255,1.0,-1.0,0.7,0.7,0.3,0.3
56.0,0.0793,0.801,0.8247,1.0,-1.0,0.7,0.7,0.3,0.3
57.0,0.0721,0.801,0.8233,1.0,-1.0,0.7,0.7,0.3,0.3
58.0,0.0656,0.801,0.8222,1.0,-1.0,0.7,0.7,0.3,0.3
59.0,0.0596,0.801,0.8194,1.0,-1.0,0.7,0.7,0.3,0.3
60.0,0.0542,0.801,0.8189,1.0,-1.0,0.7,0.7,0.3,0.3
61.0,0.0493,0.801,0.8174,1.0,-1.0,0.7,0.7,0.3,0.3
62.0,0.0448,0.8007,0.8173,1.0,-1.0,0.7,0.7,0.3,0.3
63.0,0.0407,0.8007,0.8157,1.0,-1.0,0.7,0.7,0.3,0.3
64.0,0.037,0.8007,0.816,1.0,-1.0,0.7,0.7,0.3,0.3
65.0,0.0336,0.8007,0.8133,1.0,-1.0,0.7,0.7,0.3,0.3
66.0,0.0306,0.8007,0.8143,1.0,-1.0,0.7,0.7,0.3,0.3
67.0,0.0278,0.8005,0.8119,1.0,-1.0,0.7,0.7,0.3,0.3
68.0,0.0253,0.7998,0.8112,1.0,-1.0,0.7,0.7,0.3,0.3
69.0,0.023,0.7998,0.8093,1.0,-1.0,0.7,0.7,0.3,0.3
70.0,0.0209,0.7998,0.8096,1.0,-1.0,0.7,0.7,0.3,0.3
71.0,0.019,0.7997,0.8082,1.0,-1.0,0.7,0.7,0.3,0.3
72.0,0.0173,0.7997,0.8083,1.0,-1.0,0.7,0.7,0.3,0.3
73.0,0.0157,0.7996,0.8077,1.0,-1.0,0.7,0.7,0.3,0.3
74.0,0.0143,0.7996,0.8061,1.0,-1.0,0.7,0.7,0.3,0.3
75.0,0.013,0.7991,0.8061,1.0,-1.0,0.7,0.7,0.3,0.3
76.0,0.0118,0.7991,0.8053,1.0,-1.0,0.7,0.7,0.3,0.3
77.0,0.0107,0.7991,0.8047,1.0,-1.0,0.7,0.7,0.3,0.3
78.0,0.0097,0.7991,0.8048,1.0,-1.0,0.7,0.7,0.3,0.3
79.0,0.0089,0.7991,0.8042,1.0,-1.0,0.7,0.7,0.3,0.3
80.0,0.0081,0.7991,0.8039,1.0,-1.0,0.7,0.7,0.3,0.3
81.0,0.0073,0.7991,0.8033,1.0,-1.0,0.7,0.7,0.3,0.3
82.0,0.0067,0.7989,0.803,1.0,-1.0,0.7,0.7,0.3,0.3
83.0,0.0061,0.7989,0.8029,1.0,-1.0,0.7,0.7,0.3,0.3
84.0,0.0055,0.7989,0.8023,1.0,-1.0,0.7,0.7,0.3,0.3
85.0,0.005,0.7989,0.8023,1.0,-1.0,0.7,0.7,0.3,0.3
86.0,0.0045,0.7989,0.8017,1.0,-1.0,0.7,0.7,0.3,0.3
87.0,0.0041,0.7986,0.8012,1.0,-1.0,0.7,0.7,0.3,0.3
88.0,0.0038,0.7986,0.8019,1.0,-1.0,0.7,0.7,0.3,0.3
89.0,0.0034,0.7986,0.8012,1.0,-1.0,0.7,0.7,0.3,0.3
90.0,0.0031,0.7986,0.8007,1.0,-1.0,0.7,0.7,0.3,0.3
91.0,0.0028,0.7984,0.8005,1.0,-1.0,0.7,0.7,0.3,0.3
92.0,0.0026,0.7982,0.8003,1.0,-1.0,0.7,0.7,0.3,0.3
93.0,0.0023,0.7982,0.8,1.0,-1.0,0.7,0.7,0.3,0.3
94.0,0.0021,0.7981,0.7998,1.0,-1.0,0.7,0.7,0.3,0.3
95.0,0.0019,0.7981,0.7997,1.0,-1.0,0.7,0.7,0.3,0.3
96.0,0.0018,0.7979,0.7995,1.0,-1.0,0.7,0.7,0.3,0.3
97.0,0.0016,0.7978,0.7995,1.0,-1.0,0.7,0.7,0.3,0.3
98.0,0.0014,0.7977,0.7995,1.0,-1.0,0.7,0.7,0.3,0.3
99.0,0.0013,0.7977,0.799,1.0,-1.0,0.7,0.7,0.3,0.3
100.0,0.0012,0.7977,0.7991,1.0,-1.0,0.7,0.7,0.3,0.3
101.0,0.0011,0.7977,0.799,1.0,-1.0,0.7,0.7,0.3,0.3
102.0,0.001,0.7974,0.7986,1.0,-1.0,0.7,0.7,0.3,0.3
103.0,0.0009,0.7974,0.7985,1.0,-1.0,0.7,0.7,0.3,0.3
104.0,0.0008,0.7974,0.7984,1.0,-1.0,0.7,0.7,0.3,0.3
105.0,0.0007,0.7974,0.7982,1.0,-1.0,0.7,0.7,0.3,0.3
106.0,0.0007,0.7973,0.7981,1.0,-1.0,0.7,0.7,0.3,0.3
107.0,0.0006,0.7971,0.7978,1.0,-1.0,0.7,0.7,0.3,0.3
108.0,0.0006,0.797,0.7977,1.0,-1.0,0.7,0.7,0.3,0.3
109.0,0.0005,0.797,0.7977,1.0,-1.0,0.7,0.7,0.3,0.3
110.0,0.0005,0.797,0.7977,1.0,-1.0,0.7,0.7,0.3,0.3
111.0,0.0004,0.7967,0.7974,1.0,-1.0,0.7,0.7,0.3,0.3
112.0,0.0004,0.7967,0.7974,1.0,-1.0,0.7,0.7,0.3,0.3
113.0,0.0003,0.7966,0.7973,1.0,-1.0,0.7,0.7,0.3,0.3
114.0,0.0003,0.7966,0.7971,1.0,-1.0,0.7,0.7,0.3,0.3
115.0,0.0003,0.7966,0.797,1.0,-1.0,0.7,0.7,0.3,0.3
116.0,0.0003,0.7965,0.7969,1.0,-1.0,0.7,0.7,0.3,0.3
117.0,0.0002,0.7965,0.7969,1.0,-1.0,0.7,0.7,0.3,0.3
118.0,0.0002,0.7964,0.7968,1.0,-1.0,0.7,0.7,0.3,0.3
119.0,0.0002,0.7963,0.7967,1.0,-1.0,0.7,0.7,0.3,0.3
120.0,0.0002,0.7963,0.7966,1.0,-1.0,0.7,0.7,0.3,0.3
121.0,0.0002,0.7962,0.7965,1.0,-1.0,0.7,0.7,0.3,0.3
122.0,0.0001,0.7962,0.7965,1.0,-1.0,0.7,0.7,0.3,0.3
123.0,0.0001,0.7961,0.7963,1.0,-1.0,0.7,0.7,0.3,0.3
124.0,0.0001,0.796,0.7963,1.0,-1.0,0.7,0.7,0.3,0.3
125.0,0.0001,0.796,0.7962,1.0,-1.0,0.7,0.7,0.3,0.3
126.0,0.0001,0.796,0.7962,1.0,-1.0,0.7,0.7,0.3,0.3
127.0,0.0001,0.796,0.7961,1.0,-1.0,0.7,0.7,0.3,0.3
128.0,0.0001,0.796,0.7961,1.0,-1.0,0.7,0.7,0.3,0.3
129.0,0.0001,0.7959,0.796,1.0,-1.0,0.7,0.7,0.3,0.3
130.0,0.0001,0.7958,0.796,1.0,-1.0,0.7,0.7,0.3,0.3
131.0,0.0001,0.7958,0.7959,1.0,-1.0,0.7,0.7,0.3,0.3
132.0,0.0001,0.7958,0.7959,1.0,-1.0,0.7,0.7,0.3,0.3
133.0,0.0001,0.7957,0.7959,1.0,-1.0,0.7,0.7,0.3,0.3
134.0,0.0,0.7957,0.7958,1.0,-1.0,0.7,0.7,0.3,0.3
135.0,0.0,0.7957,0.7958,1.0,-1.0,0.7,0.7,0.3,0.3
136.0,0.0,0.7957,0.7957,1.0,-1.0,0.7,0.7,0.3,0.3
137.0,0.0,0.7957,0.7957,1.0,-1.0,0.7,0.7,0.3,0.3
138.0,0.0,0.7956,0.7957,1.0,-1.0,0.7,0.7,0.3,0.3
139.0,0.0,0.7956,0.7957,1.0,-1.0,0.7,0.7,0.3,0.3
140.0,0.0,0.7956,0.7956,1.0,-1.0,0.7,0.7,0.3,0.3
141.0,0.0,0.7956,0.7956,1.0,-1.0,0.7,0.7,0.3,0.3
142.0,0.0,0.7956,0.7956,1.0,-1.0,0.7,0.7,0.3,0.3
143.0,0.0,0.7955,0.7956,1.0,-1.0,0.7,0.7,0.3,0.3
144.0,0.0,0.7955,0.7956,1.0,-1.0,0.7,0.7,0.3,0.3
145.0,0.0,0.7955,0.7955,1.0,-1.0,0.7,0.7,0.3,0.3
146.0,0.0,0.7955,0.7955,1.0,-1.0,0.7,0.7,0.3,0.3
147.0,0.0,0.7955,0.7955,1.0,-1.0,0.7,0.7,0.3,0.3
148.0,0.0,0.7955,0.7955,1.0,-1.0,0.7,0.7,0.3,0.3
149.0,0.0,0.7955,0.7955,1.0,-1.0,0.7,0.7,0.3,0.3
150.0,0.0,0.7954,0.7955,1.0,-1.0,0.7,0.7,0.3,0.3
