i,theta,chi2_min,chi2_avg,edge_p,edge_n,Ap_p,Ap_n,Ac_p,Ac_n
1.0,10.0,0.9076,5.6459,1.0001,-1.0001,0.35,0.35,0.15,0.15
2.0,9.0909,0.8642,4.9595,0.9995,-0.9995,0.35,0.35,0.15,0.15
3.0,8.2645,0.8642,4.4295,0.9987,-0.9987,0.35,0.35,0.15,0.15
4.0,7.5131,0.8603,3.7214,0.9995,-0.9995,0.35,0.35,0.15,0.15
5.0,6.8301,0.8603,3.3138,0.9997,-0.9997,0.35,0.35,0.15,0.15
6.0,6.2092,0.8603,2.9984,1.0001,-1.0001,0.35,0.35,0.15,0.15
7.0,5.6447,0.8603,2.724,1.0004,-1.0004,0.35,0.35,0.15,0.15
8.0,5.1316,0.8567,2.3795,0.998,-0.998,0.35,0.35,0.15,0.15
9.0,4.6651,0.8553,2.1315,0.9992,-0.9992,0.35,0.35,0.15,0.15
10.0,4.241,0.8543,1.9949,0.9994,-0.9994,0.35,0.35,0.15,0.15
11.0,3.8554,0.8539,1.8392,0.9999,-0.9999,0.35,0.35,0.15,0.15
12.0,3.5049,0.8539,1.6633,0.9996,-0.9996,0.35,0.35,0.15,0.15
13.0,3.1863,0.8539,1.5588,1.0002,-1.0002,0.35,0.35,0.15,0.15
14.0,2.8966,0.8539,1.4503,0.999,-0.999,0.35,0.35,0.15,0.15
15.0,2.6333,0.8537,1.3684,1.0001,-1.0001,0.35,0.35,0.15,0.15
16.0,2.3939,0.8537,1.2878,0.9986,-0.9986,0.35,0.35,0.15,0.15
17.0,2.1763,0.8535,1.2628,0.9993,-0.9993,0.35,0.35,0.15,0.15
18.0,1.9784,0.8535,1.2045,0.9994,-0.9994,0.35,0.35,0.15,0.15
19.0,1.7986,0.8527,1.1454,0.9988,-0.9988,0.35,0.35,0.15,0.15
20.0,1.6351,0.8527,1.1148,0.9994,-0.9994,0.35,0.35,0.15,0.15
21.0,1.4864,0.8527,1.1243,1.0,-1.0,0.35,0.35,0.15,0.15
22.0,1.3513,0.8527,1.0661,0.9992,-0.9992,0.35,0.35,0.15,0.15
23.0,1.2285,0.8527,1.0346,0.9995,-0.9995,0.35,0.35,0.15,0.15
24.0,1.1168,0.8527,0.9993,0.9992,-0.9992,0.35,0.35,0.15,0.15
25.0,1.0153,0.8527,0.989,0.9995,-0.9995,0.35,0.35,0.15,0.15
26.0,0.923,0.8527,0.971,0.9989,-0.9989,0.35,0.35,0.15,0.15
27.0,0.8391,0.8527,0.9459,0.9991,-0.9991,0.35,0.35,0.15,0.15
28.0,0.7628,0.8527,0.9665,0.9995,-0.9995,0.35,0.35,0.15,0.15
29.0,0.6934,0.8527,0.9624,0.9991,-0.9991,0.35,0.35,0.15,0.15
30.0,0.6304,0.8524,0.9355,0.9998,-0.9998,0.35,0.35,0.15,0.15
31.0,0.5731,0.8524,0.9349,0.9993,-0.9993,0.35,0.35,0.15,0.15
32.0,0.521,0.8524,0.9149,0.9995,-0.9995,0.35,0.35,0.15,0.15
33.0,0.4736,0.8524,0.905,0.9994,-0.9994,0.35,0.35,0.15,0.15
34.0,0.4306,0.8524,0.9014,0.9986,-0.9986,0.35,0.35,0.15,0.15
35.0,0.3914,0.8524,0.908,0.9996,-0.9996,0.35,0.35,0.15,0.15
36.0,0.3558,0.8523,0.8912,0.9989,-0.9989,0.35,0.35,0.15,0.15
37.0,0.3235,0.8523,0.886,0.9992,-0.9992,0.35,0.35,0.15,0.15
38.0,0.2941,0.8523,0.8986,1.0001,-1.0001,0.35,0.35,0.15,0.15
39.0,0.2673,0.8523,0.8977,0.9993,-0.9993,0.35,0.35,0.15,0.15
40.0,0.243,0.8523,0.8778,0.9996,-0.9996,0.35,0.35,0.15,0.15
41.0,0.2209,0.8523,0.8793,0.9992,-0.9992,0.35,0.35,0.15,0.15
42.0,0.2009,0.8523,0.8761,0.9992,-0.9992,0.35,0.35,0.15,0.15
43.0,0.1826,0.8523,0.8738,0.9993,-0.9993,0.35,0.35,0.15,0.15
44.0,0.166,0.8523,0.8686,0.9989,-0.9989,0.35,0.35,0.15,0.15
45.0,0.1509,0.8523,0.8846,0.9999,-0.9999,0.35,0.35,0.15,0.15
46.0,0.1372,0.8523,0.8927,0.9998,-0.9998,0.35,0.35,0.15,0.15
47.0,0.1247,0.8523,0.875,0.9994,-0.9994,0.35,0.35,0.15,0.15
48.0,0.1134,0.8523,0.8697,0.9996,-0.9996,0.35,0.35,0.15,0.15
49.0,0.1031,0.8523,0.8687,0.9992,-0.9992,0.35,0.35,0.15,0.15
50.0,0.0937,0.8523,0.8632,0.9992,-0.9992,0.35,0.35,0.15,0.15
51.0,0.0852,0.8516,0.8606,0.9987,-0.9987,0.35,0.35,0.15,0.15
52.0,0.0774,0.8516,0.8609,0.999,-0.999,0.35,0.35,0.15,0.15
53.0,0.0704,0.8516,0.8607,0.999,-0.999,0.35,0.35,0.15,0.15
54.0,0.064,0.8516,0.8612,0.9992,-0.9992,0.35,0.35,0.15,0.15
55.0,0.0582,0.8516,0.8596,0.999,-0.999,0.35,0.35,0.15,0.15
56.0,0.0529,0.8516,0.8587,0.9988,-0.9988,0.35,0.35,0.15,0.15
57.0,0.0481,0.8516,0.8604,0.9991,-0.9991,0.35,0.35,0.15,0.15
58.0,0.0437,0.8516,0.8575,0.9986,-0.9986,0.35,0.35,0.15,0.15
59.0,0.0397,0.8516,0.8579,0.9989,-0.9989,0.35,0.35,0.15,0.15
60.0,0.0361,0.8512,0.8568,0.9989,-0.9989,0.35,0.35,0.15,0.15
61.0,0.0328,0.8512,0.857,0.9992,-0.9992,0.35,0.35,0.15,0.15
62.0,0.0299,0.8512,0.8572,0.9991,-0.9991,0.35,0.35,0.15,0.15
63.0,0.0271,0.8512,0.8557,0.9987,-0.9987,0.35,0.35,0.15,0.15
64.0,0.0247,0.8512,0.8555,0.9988,-0.9988,0.35,0.35,0.15,0.15
65.0,0.0224,0.8512,0.8558,0.9989,-0.9989,0.35,0.35,0.15,0.15
66.0,0.0204,0.8509,0.8552,0.9987,-0.9987,0.35,0.35,0.15,0.15
67.0,0.0185,0.8509,0.8551,0.9989,-0.9989,0.35,0.35,0.15,0.15
68.0,0.0169,0.8509,0.8554,0.9989,-0.9989,0.35,0.35,0.15,0.15
69.0,0.0153,0.8509,0.8551,0.9989,-0.9989,0.35,0.35,0.15,0.15
70.0,0.0139,0.8509,0.8547,0.9989,-0.9989,0.35,0.35,0.15,0.15
71.0,0.0127,0.8509,0.855,0.9988,-0.9988,0.35,0.35,0.15,0.15
72.0,0.0115,0.8507,0.8542,0.9987,-0.9987,0.35,0.35,0.15,0.15
73.0,0.0105,0.8507,0.8548,0.9988,-0.9988,0.35,0.35,0.15,0.15
74.0,0.0095,0.8507,0.8536,0.9988,-0.9988,0.35,0.35,0.15,0.15
75.0,0.0086,0.8507,0.854,0.9986,-0.9986,0.35,0.35,0.15,0.15
76.0,0.0079,0.8498,0.8521,0.9986,-0.9986,0.35,0.35,0.15,0.15
77.0,0.0071,0.8498,0.8541,0.9988,-0.9988,0.35,0.35,0.15,0.15
78.0,0.0065,0.8498,0.8534,0.9989,-0.9989,0.35,0.35,0.15,0.15
79.0,0.0059,0.8498,0.8523,0.9989,-0.9989,0.35,0.35,0.15,0.15
80.0,0.0054,0.8493,0.851,0.9988,-0.9988,0.35,0.35,0.15,0.15
81.0,0.0049,0.8491,0.8512,0.9988,-0.9988,0.35,0.35,0.15,0.15
82.0,0.0044,0.8491,0.853,0.9988,-0.9988,0.35,0.35,0.15,0.15
83.0,0.004,0.8491,0.8517,0.9989,-0.9989,0.35,0.35,0.15,0.15
84.0,0.0037,0.8491,0.8528,0.9989,-0.9989,0.35,0.35,0.15,0.15
85.0,0.0033,0.849,0.8503,0.9989,-0.9989,0.35,0.35,0.15,0.15
86.0,0.003,0.8484,0.8499,0.9989,-0.9989,0.35,0.35,0.15,0.15
87.0,0.0028,0.8484,0.85,0.9989,-0.9989,0.35,0.35,0.15,0.15
88.0,0.0025,0.8482,0.8498,0.9989,-0.9989,0.35,0.35,0.15,0.15
89.0,0.0023,0.8482,0.8493,0.9989,-0.9989,0.35,0.35,0.15,0.15
90.0,0.0021,0.8482,0.8494,0.9989,-0.9989,0.35,0.35,0.15,0.15
91.0,0.0019,0.848,0.8497,0.9989,-0.9989,0.35,0.35,0.15,0.15
92.0,0.0017,0.8479,0.8491,0.9989,-0.9989,0.35,0.35,0.15,0.15
93.0,0.0016,0.8479,0.8491,0.9989,-0.9989,0.35,0.35,0.15,0.15
94.0,0.0014,0.8479,0.8491,0.9989,-0.9989,0.35,0.35,0.15,0.15
95.0,0.0013,0.8478,0.8488,0.9989,-0.9989,0.35,0.35,0.15,0.15
