omega,S,S_edge,S_cont,Sr,Sr_edge,Sr_cont
-1.5075000000000003,0.0,0.0,0.0
-1.5024999999999995,0.00021205750411731103,0.00021205750411731103,0.0
-1.4975000000000005,0.0026973714523721966,0.0026973714523721966,0.0
-1.4924999999999997,0.020620471700367328,0.020620471700367328,0.0
-1.4875000000000007,0.06882538353631448,0.06882538353631448,0.0
-1.4825,0.16106191552718016,0.16106191552718016,0.0
-1.4774999999999991,0.4011194924881411,0.4011194924881411,0.0
-1.4725000000000001,0.7844855307315802,0.7844855307315802,0.0
-1.4674999999999994,1.2327326829347451,1.2327326829347451,0.0
-1.4625000000000004,1.6134183143261334,1.6134183143261334,0.0
-1.4574999999999996,1.8061531386682712,1.8061531386682712,0.0
-1.4525000000000006,1.6936693561842873,1.6936693561842873,0.0
-1.4474999999999998,1.463247672210422,1.463247672210422,0.0
-1.442499999999999,1.2196444937806246,1.2196444937806246,0.0
-1.4375,1.0594053613694234,1.0594053613694234,0.0
-1.4324999999999992,0.9538431358198282,0.9538431358198282,0.0
-1.4275000000000002,0.8803440048927694,0.8803440048927694,0.0
-1.4224999999999994,0.8195004658114313,0.8195004658114313,0.0
-1.4175000000000004,0.7720589609903066,0.7720589609903066,0.0
-1.4124999999999996,0.730622924685784,0.730622924685784,0.0
-1.4075000000000006,0.6979236575508946,0.6979236575508946,0.0
-1.4024999999999999,0.6649444745105705,0.6649444745105705,0.0
-1.397499999999999,0.6406172376382325,0.6406172376382325,0.0
-1.3925,0.6148649743382262,0.6148649743382262,0.0
-1.3874999999999993,0.5951096972546575,0.5951096972546575,0.0
-1.3825000000000003,0.5744468140534668,0.5744468140534668,0.0
-1.3774999999999995,0.5570920279165059,0.5570920279165059,0.0
-1.3725000000000005,0.5407975293001317,0.5407975293001317,0.0
-1.3674999999999997,0.5246472297865573,0.5246472297865573,0.0
-1.362499999999999,0.5119492264400127,0.5119492264400127,0.0
-1.3575,0.49853870987963406,0.49853870987963406,0.0
-1.3524999999999991,0.48632419764247675,0.48632419764247675,0.0
-1.3475000000000001,0.4739739686026846,0.4739739686026846,0.0
-1.3424999999999994,0.4635068101994542,0.4635068101994542,0.0
-1.3375000000000004,0.45322626239984687,0.45322626239984687,0.0
-1.3324999999999996,0.44481182063647207,0.44481182063647207,0.0
-1.3275000000000006,0.4358375470622274,0.4358375470622274,0.0
-1.3224999999999998,0.427160153993747,0.427160153993747,0.0
-1.317499999999999,0.41939884934305344,0.41939884934305344,0.0
-1.3125,0.41188353139713585,0.41188353139713585,0.0
-1.3074999999999992,0.4038592754413368,0.4038592754413368,0.0
-1.3025000000000002,0.3970479884090888,0.3970479884090888,0.0
-1.2974999999999994,0.39035545357914647,0.39035545357914647,0.0
-1.2925000000000004,0.38225485692186517,0.38225485692186517,0.0
-1.2874999999999996,0.37629179990608635,0.37629179990608635,0.0
-1.2825000000000006,0.37071892869788337,0.37071892869788337,0.0
-1.2774999999999999,0.3660282167068085,0.3660282167068085,0.0
-1.272499999999999,0.36060802690156996,0.36060802690156996,0.0
-1.2675,0.356307500718071,0.356307500718071,0.0
-1.2624999999999993,0.3484019969645776,0.3484019969645776,0.0
-1.2575000000000003,0.3451617583016651,0.3451617583016651,0.0
-1.2524999999999995,0.3411835595244243,0.3411835595244243,0.0
-1.2475000000000005,0.33544952461309224,0.33544952461309224,0.0
-1.2424999999999997,0.3304704144164177,0.3304704144164177,0.0
-1.237499999999999,0.32493995470903825,0.32493995470903825,0.0
-1.2325,0.32472789720492096,0.32472789720492096,0.0
-1.2274999999999991,0.31840858358222507,0.31840858358222507,0.0
-1.2225000000000001,0.3156857652293588,0.3156857652293588,0.0
-1.2174999999999994,0.309366451606663,0.309366451606663,0.0
-1.2125000000000004,0.3071271243631842,0.3071271243631842,0.0
-1.2074999999999996,0.3037766157981306,0.3037766157981306,0.0
-1.2025000000000006,0.30170693455794556,0.30170693455794556,0.0
-1.1974999999999998,0.296015311147437,0.296015311147437,0.0
-1.192499999999999,0.2935639263998409,0.2935639263998409,0.0
-1.1875,0.28933974091782405,0.28933974091782405,0.0
-1.1824999999999992,0.28919554181502427,0.28919554181502427,0.0
-1.1775000000000002,0.28385169271126803,0.28385169271126803,0.0
-1.1724999999999994,0.27907615771854616,0.27907615771854616,0.0
-1.1675000000000004,0.2808574407531316,0.2808574407531316,0.0
-1.1624999999999996,0.2754796624487166,0.2754796624487166,0.0
-1.1575000000000006,0.26990679124051364,0.26990679124051364,0.0
-1.1524999999999999,0.2730197954009558,0.2730197954009558,0.0
-1.147499999999999,0.2667428932790834,0.2667428932790834,0.0
-1.1425,0.2631294334089244,0.2631294334089244,0.0
-1.1374999999999993,0.2654111721532266,0.2654111721532266,0.0
-1.1325000000000003,0.25791281880763856,0.25791281880763856,0.0
-1.1274999999999995,0.257293610895616,0.257293610895616,0.0
-1.1225000000000005,0.25644538087914676,0.25644538087914676,0.0
-1.1174999999999997,0.252797991808329,0.252797991808329,0.0
-1.112499999999999,0.25053321766435604,0.25053321766435604,0.0
-1.1075,0.24716574449897324,0.24716574449897324,0.0
-1.1024999999999991,0.24722512060012602,0.24722512060012602,0.0
-1.0975000000000001,0.2434674616271673,0.2434674616271673,0.0
-1.0924999999999994,0.2429839705177798,0.2429839705177798,0.0
-1.0875000000000004,0.23957408585157344,0.23957408585157344,0.0
-1.0824999999999996,0.23679189139755433,0.23679189139755433,0.0
-1.0775000000000006,0.23832718772736375,0.23832718772736375,0.0
-1.0724999999999998,0.23051498927568193,0.23051498927568193,0.0
-1.067499999999999,0.2356807100759796,0.2356807100759796,0.0
-1.0625,0.22946318405526006,0.22946318405526006,0.0
-1.0574999999999992,0.22809753372874458,0.22809753372874458,0.0
-1.0525000000000002,0.22859798943846146,0.22859798943846146,0.0
-1.0474999999999994,0.2213371404974847,0.2213371404974847,0.0
-1.0425000000000004,0.22790244082495667,0.22790244082495667,0.0
-1.0374999999999996,0.2151705082777533,0.2151705082777533,0.0
-1.0325000000000006,0.22669795420157027,0.22669795420157027,0.0
-1.0274999999999999,0.21129409710248884,0.21129409710248884,0.0
-1.022499999999999,0.22299967132976442,0.22299967132976442,0.0
-1.0175,0.208477973447811,0.208477973447811,0.0
-1.0124999999999993,0.2191911185558175,0.2191911185558175,0.0
-1.0075000000000003,0.20732438062541278,0.20732438062541278,0.0
-1.0024999999999995,0.2131686854388859,0.2131686854388859,0.0
-0.9975000000000005,0.20684937181618998,0.20684937181618998,0.0
-0.9924999999999997,0.2085543141492932,0.2085543141492932,0.0
-0.9874999999999989,0.2061707878030146,0.2061707878030146,0.0
-0.9824999999999999,0.20338011104883078,0.20338011104883078,0.0
-0.9774999999999991,0.20473727907518155,0.20473727907518155,0.0
-0.9725000000000001,0.19890993886203792,0.19890993886203792,0.0
-0.9674999999999994,0.2018702616195155,0.2018702616195155,0.0
-0.9625000000000004,0.1959750630050543,0.1959750630050543,0.0
-0.9574999999999996,0.20106444310386976,0.20106444310386976,0.0
-0.9525000000000006,0.192480355337201,0.192480355337201,0.0
-0.9474999999999998,0.19906262026500232,0.19906262026500232,0.0
-0.942499999999999,0.18952003257972333,0.18952003257972333,0.0
-0.9375,0.19692508062349984,0.19692508062349984,0.0
-0.9324999999999992,0.18679721422685702,0.18679721422685702,0.0
-0.9275000000000002,0.19544916039484334,0.19544916039484334,0.0
-0.9224999999999994,0.18203864383446458,0.18203864383446458,0.0
-0.9175000000000004,0.19394779326569278,0.19394779326569278,0.0
-0.9124999999999996,0.18190292703182948,0.18190292703182948,0.0
-0.9075000000000006,0.18867180256325405,0.18867180256325405,0.0
-0.9024999999999999,0.18493959049078937,0.18493959049078937,0.0
-0.8974999999999991,0.17892563967402242,0.17892563967402242,0.0
-0.8925000000000001,0.1886378733625953,0.1886378733625953,0.0
-0.8874999999999993,0.17222462254391543,0.17222462254391543,0.0
-0.8825000000000003,0.18760303274250284,0.18760303274250284,0.0
-0.8774999999999995,0.1728014189551145,0.1728014189551145,0.0
-0.8725000000000005,0.18053727670531403,0.18053727670531403,0.0
-0.8674999999999997,0.17759391854816575,0.17759391854816575,0.0
-0.8624999999999989,0.17236033934655048,0.17236033934655048,0.0
-0.8574999999999999,0.17992655109345615,0.17992655109345615,0.0
-0.8524999999999991,0.170222799705048,0.170222799705048,0.0
-0.8475000000000001,0.17241971544770335,0.17241971544770335,0.0
-0.8424999999999994,0.1729371357577496,0.1729371357577496,0.0
-0.8375000000000004,0.1687638440767209,0.1687638440767209,0.0
-0.8324999999999996,0.1712406757248111,0.1712406757248111,0.0
-0.8275000000000006,0.17096075981937625,0.17096075981937625,0.0
-0.8224999999999998,0.1648365391004683,0.1648365391004683,0.0
-0.817499999999999,0.16923885288594367,0.16923885288594367,0.0
-0.8125,0.16380169848037582,0.16380169848037582,0.0
-0.8074999999999992,0.1655151231136437,0.1655151231136437,0.0
-0.8025000000000002,0.16712676014493527,0.16712676014493527,0.0
-0.7974999999999994,0.16104495092685078,0.16104495092685078,0.0
-0.7925000000000004,0.16405616748531657,0.16405616748531657,0.0
-0.7874999999999996,0.15952661919737082,0.15952661919737082,0.0
-0.7825000000000006,0.16289409236275373,0.16289409236275373,0.0
-0.7774999999999999,0.16085834032322757,0.16085834032322757,0.0
-0.7724999999999991,0.1580761458692084,0.1580761458692084,0.0
-0.7675000000000001,0.15816096887085532,0.15816096887085532,0.0
-0.7624999999999993,0.15691407074664554,0.15691407074664554,0.0
-0.7575000000000003,0.1606886943199337,0.1606886943199337,0.0
-0.7524999999999995,0.15450509749987287,0.15450509749987287,0.0
-0.7475000000000005,0.15341088077862758,0.15341088077862758,0.0
-0.7424999999999997,0.15871231838156033,0.15871231838156033,0.0
-0.7374999999999989,0.15152781014206584,0.15152781014206584,0.0
-0.7324999999999999,0.15386892498752097,0.15386892498752097,0.0
-0.7274999999999991,0.1528510489677579,0.1528510489677579,0.0
-0.7225000000000001,0.15031484121851482,0.15031484121851482,0.0
-0.7174999999999994,0.152681402964464,0.152681402964464,0.0
-0.7125000000000004,0.14873713338788203,0.14873713338788203,0.0
-0.7074999999999996,0.15051841642246744,0.15051841642246744,0.0
-0.7025000000000006,0.1486607926863998,0.1486607926863998,0.0
-0.6974999999999998,0.1461754787381449,0.1461754787381449,0.0
-0.692499999999999,0.1513751287391014,0.1513751287391014,0.0
-0.6875,0.14509822661722893,0.14509822661722893,0.0
-0.6824999999999992,0.14464866470850027,0.14464866470850027,0.0
-0.6775000000000002,0.1498737616099508,0.1498737616099508,0.0
-0.6724999999999994,0.14195129325612807,0.14195129325612807,0.0
-0.6675000000000004,0.1438173992923604,0.1438173992923604,0.0
-0.6624999999999996,0.14736300076120185,0.14736300076120185,0.0
-0.6575000000000006,0.13930481560474403,0.13930481560474403,0.0
-0.6524999999999999,0.1436053417882431,0.1436053417882431,0.0
-0.6474999999999991,0.14455535940668862,0.14455535940668862,0.0
-0.6425000000000001,0.1363020813464429,0.1363020813464429,0.0
-0.6374999999999993,0.14352900108676087,0.14352900108676087,0.0
-0.6325000000000003,0.1406535013309301,0.1406535013309301,0.0
-0.6274999999999995,0.13548778053063243,0.13548778053063243,0.0
-0.6225000000000005,0.14232451446337455,0.14232451446337455,0.0
-0.6174999999999997,0.1380833643810283,0.1380833643810283,0.0
-0.6124999999999989,0.1351824177247035,0.1351824177247035,0.0
-0.6074999999999999,0.14033117392467181,0.14033117392467181,0.0
-0.6024999999999991,0.13575073183573788,0.13575073183573788,0.0
-0.5975000000000001,0.13474133811613948,0.13474133811613948,0.0
-0.5924999999999994,0.13827845728481622,0.13827845728481622,0.0
-0.5875000000000004,0.1336216744944001,0.1336216744944001,0.0
-0.5824999999999996,0.13253594007331945,0.13253594007331945,0.0
-0.5775000000000006,0.1384396209879454,0.1384396209879454,0.0
-0.5724999999999998,0.12930418371057162,0.12930418371057162,0.0
-0.567499999999999,0.13211182506508484,0.13211182506508484,0.0
-0.5625,0.13655655035138364,0.13655655035138364,0.0
-0.5574999999999992,0.12810817938735,0.12810817938735,0.0
-0.5525000000000002,0.1316028870552033,0.1316028870552033,0.0
-0.5474999999999994,0.13323997098698892,0.13323997098698892,0.0
-0.5425000000000004,0.1316792277566855,0.1316792277566855,0.0
-0.5374999999999996,0.12438444961505002,0.12438444961505002,0.0
-0.5325000000000006,0.13200155516294385,0.13200155516294385,0.0
-0.5274999999999999,0.13452928061202216,0.13452928061202216,0.0
-0.5224999999999991,0.11685216706880312,0.11685216706880312,0.0
-0.5175000000000001,0.1346565151144926,0.1346565151144926,0.0
-0.5124999999999993,0.13157744015470924,0.13157744015470924,0.0
-0.5075000000000003,0.11734414047835524,0.11734414047835524,0.0
-0.5024999999999995,0.1305001880337933,0.1305001880337933,0.0
-0.4975000000000005,0.13029661282984065,0.13029661282984065,0.0
-0.4924999999999997,0.1206946490434088,0.1206946490434088,0.0
-0.48749999999999893,0.12102545874983182,0.12102545874983182,0.0
-0.48249999999999993,0.13588644863837296,0.13588644863837296,0.0
-0.47749999999999915,0.11989731282792772,0.11989731282792772,0.0
-0.47250000000000014,0.11738655197917876,0.11738655197917876,0.0
-0.46749999999999936,0.13201851976327322,0.13201851976327322,0.0
-0.46250000000000036,0.12270495418244091,0.12270495418244091,0.0
-0.4574999999999996,0.11533383533932316,0.11533383533932316,0.0
-0.45250000000000057,0.12282370638474663,0.12282370638474663,0.0
-0.4474999999999998,0.13041536503214632,0.13041536503214632,0.0
-0.442499999999999,0.1116949285686701,0.1116949285686701,0.0
-0.4375,0.12104242335016117,0.12104242335016117,0.0
-0.4324999999999992,0.12829478999097324,0.12829478999097324,0.0
-0.4275000000000002,0.11652135736238012,0.11652135736238012,0.0
-0.42249999999999943,0.11476552122828879,0.11476552122828879,0.0
-0.4175000000000004,0.12310362229018144,0.12310362229018144,0.0
-0.41249999999999964,0.12209422857058308,0.12209422857058308,0.0
-0.40750000000000064,0.11075339325038924,0.11075339325038924,0.0
-0.40249999999999986,0.1215852905607015,0.1215852905607015,0.0
-0.3974999999999991,0.12010088803188035,0.12010088803188035,0.0
-0.39250000000000007,0.11394273811231362,0.11394273811231362,0.0
-0.3874999999999993,0.11591063175052227,0.11591063175052227,0.0
-0.3825000000000003,0.12268798958211151,0.12268798958211151,0.0
-0.3774999999999995,0.10987971633342594,0.10987971633342594,0.0
-0.3725000000000005,0.11604634855315735,0.11604634855315735,0.0
-0.3674999999999997,0.11692002547012065,0.11692002547012065,0.0
-0.36249999999999893,0.11681823786814437,0.11681823786814437,0.0
-0.35749999999999993,0.10836986690411068,0.10836986690411068,0.0
-0.35249999999999915,0.11930355181639925,0.11930355181639925,0.0
-0.34750000000000014,0.11697091927110881,0.11697091927110881,0.0
-0.34249999999999936,0.10619839806194939,0.10619839806194939,0.0
-0.33750000000000036,0.11173734006949358,0.11173734006949358,0.0
-0.3324999999999996,0.12129689235510198,0.12129689235510198,0.0
-0.32750000000000057,0.1124668178836571,0.1124668178836571,0.0
-0.3224999999999998,0.10034561094831161,0.10034561094831161,0.0
-0.317499999999999,0.11712360067407329,0.11712360067407329,0.0
-0.3125,0.11949864472018715,0.11949864472018715,0.0
-0.3074999999999992,0.10614750426096127,0.10614750426096127,0.0
-0.3025000000000002,0.10217778778388519,0.10217778778388519,0.0
-0.29749999999999943,0.11878613150635299,0.11878613150635299,0.0
-0.2925000000000004,0.11457042832450086,0.11457042832450086,0.0
-0.28749999999999964,0.10186394267779157,0.10186394267779157,0.0
-0.28250000000000064,0.10534168574531548,0.10534168574531548,0.0
-0.27749999999999986,0.11769191478510768,0.11769191478510768,0.0
-0.2724999999999991,0.11110964985730634,0.11110964985730634,0.0
-0.26750000000000007,0.10023534104617059,0.10023534104617059,0.0
-0.2624999999999993,0.10690242897561889,0.10690242897561889,0.0
-0.2575000000000003,0.11412086641577215,0.11412086641577215,0.0
-0.2524999999999995,0.10871764121086307,0.10871764121086307,0.0
-0.2475000000000005,0.10108357106263988,0.10108357106263988,0.0
-0.24249999999999972,0.10703814577825398,0.10703814577825398,0.0
-0.23749999999999893,0.10905693321745077,0.10905693321745077,0.0
-0.23249999999999993,0.10824263240164027,0.10824263240164027,0.0
-0.22749999999999915,0.10252556209063757,0.10252556209063757,0.0
-0.22250000000000014,0.10490908843691615,0.10490908843691615,0.0
-0.21749999999999936,0.10355192041056535,0.10355192041056535,0.0
-0.21250000000000036,0.11011722073803731,0.11011722073803731,0.0
-0.20749999999999957,0.10497694683823369,0.10497694683823369,0.0
-0.20250000000000057,0.10018444724518245,0.10018444724518245,0.0
-0.1974999999999998,0.09855584561356152,0.09855584561356152,0.0
-0.192499999999999,0.11241592408266897,0.11241592408266897,0.0
-0.1875,0.10794575189587607,0.10794575189587607,0.0
-0.18249999999999922,0.09669822187749386,0.09669822187749386,0.0
-0.1775000000000002,0.09299145670552328,0.09299145670552328,0.0
-0.17249999999999943,0.11152528256537628,0.11152528256537628,0.0
-0.16750000000000043,0.11239895948233959,0.11239895948233959,0.0
-0.16249999999999964,0.09601963786431847,0.09601963786431847,0.0
-0.15750000000000064,0.08713018729172078,0.08713018729172078,0.0
-0.15249999999999986,0.1065037608678783,0.1065037608678783,0.0
-0.14749999999999908,0.11859952090272977,0.11859952090272977,0.0
-0.14250000000000007,0.09693572628210526,0.09693572628210526,0.0
-0.1374999999999993,0.08152338688285907,0.08152338688285907,0.0
-0.13250000000000028,0.10116839406428678,0.10116839406428678,0.0
-0.1274999999999995,0.12168707816267782,0.12168707816267782,0.0
-0.1225000000000005,0.09905630132327836,0.09905630132327836,0.0
-0.11749999999999972,0.080726050667378,0.080726050667378,0.0
-0.11249999999999893,0.09543435915295469,0.09543435915295469,0.0
-0.10749999999999993,0.11630081755809812,0.11630081755809812,0.0
-0.10249999999999915,0.10414568142209381,0.10414568142209381,0.0
-0.09750000000000014,0.08725742179419117,0.08725742179419117,0.0
-0.09249999999999936,0.08763912530160232,0.08763912530160232,0.0
-0.08750000000000036,0.10605419895914965,0.10605419895914965,0.0
-0.08249999999999957,0.10987971633342596,0.10987971633342596,0.0
-0.07750000000000057,0.095315606950649,0.095315606950649,0.0
-0.07249999999999979,0.08013228965584952,0.08013228965584952,0.0
-0.067499999999999,0.09720715988737542,0.09720715988737542,0.0
-0.0625,0.10857344210806331,0.10857344210806331,0.0
-0.05749999999999922,0.10330593370578929,0.10330593370578929,0.0
-0.05250000000000021,0.08301627171184495,0.08301627171184495,0.0
-0.04749999999999943,0.08987845254508113,0.08987845254508113,0.0
-0.042500000000000426,0.10035409324847633,0.10035409324847633,0.0
-0.037499999999999645,0.10651224316804303,0.10651224316804303,0.0
-0.03250000000000064,0.0929405629045351,0.0929405629045351,0.0
-0.027499999999999858,0.08501809455071237,0.08501809455071237,0.0
-0.022499999999999076,0.09054855425809184,0.09054855425809184,0.0
-0.01750000000000007,0.10149072147054511,0.10149072147054511,0.0
-0.01249999999999929,0.10286485409722528,0.10286485409722528,0.0
-0.007500000000000284,0.08812261641098978,0.08812261641098978,0.0
-0.0024999999999995026,0.08603597057047546,0.08603597057047546,0.0
0.0024999999999995026,0.09174455858131347,0.09174455858131347,0.0
0.007500000000000284,0.10292423019837814,0.10292423019837814,0.0
0.012500000000001066,0.09618928386761232,0.09618928386761232,0.0
0.01750000000000007,0.08769850140275519,0.08769850140275519,0.0
0.022500000000000853,0.08412745303341966,0.08412745303341966,0.0
0.027499999999999858,0.09332226641194628,0.09332226641194628,0.0
0.03250000000000064,0.09970095613579495,0.09970095613579495,0.0
0.037499999999999645,0.09492542114307315,0.09492542114307315,0.0
0.042500000000000426,0.08577301926537,0.08577301926537,0.0
0.04749999999999943,0.08287207260904518,0.08287207260904518,0.0
0.05250000000000021,0.09624865996876517,0.09624865996876517,0.0
0.057500000000000995,0.09568034585773079,0.09568034585773079,0.0
0.0625,0.09370396991935744,0.09370396991935744,0.0
0.06750000000000078,0.08398325393061988,0.08398325393061988,0.0
0.07249999999999979,0.08200687799224655,0.08200687799224655,0.0
0.07750000000000057,0.09445889463401505,0.09445889463401505,0.0
