omega,S,S_edge,S_cont,Sr,Sr_edge,Sr_cont
-1.5175,0.0,0.0,0.0
-1.5124999999999993,8.246680715673207e-5,8.246680715673207e-5,0.0
-1.5075000000000003,0.0033811390934260148,0.0033811390934260148,0.0
-1.5024999999999995,0.014816536352492863,0.014816536352492863,0.0
-1.4975000000000005,0.03812715384212913,0.03812715384212913,0.0
-1.4924999999999997,0.058413988402685225,0.058413988402685225,0.0
-1.4875000000000007,0.09335242570142069,0.09335242570142069,0.0
-1.4825,0.1476980516177071,0.1476980516177071,0.0
-1.4774999999999991,0.2002019188408265,0.2002019188408265,0.0
-1.4725000000000001,0.25680163748606366,0.25680163748606366,0.0
-1.4674999999999994,0.3336057238847,0.3336057238847,0.0
-1.4625000000000004,0.4366342549591773,0.4366342549591773,0.0
-1.4574999999999996,0.6540717364957607,0.6540717364957607,0.0
-1.4525000000000006,0.890669006228425,0.890669006228425,0.0
-1.4474999999999998,1.1316645056761148,1.1316645056761148,0.0
-1.442499999999999,1.344813713240548,1.344813713240548,0.0
-1.4375,1.5062562327177107,1.5062562327177107,0.0
-1.4324999999999992,1.6673139070948084,1.6673139070948084,0.0
-1.4275000000000002,1.6683859755878456,1.6683859755878456,0.0
-1.4224999999999994,1.640044882861649,1.640044882861649,0.0
-1.4175000000000004,1.4604871547457239,1.4604871547457239,0.0
-1.4124999999999996,1.2354077490792836,1.2354077490792836,0.0
-1.4075000000000006,1.0727832053662083,1.0727832053662083,0.0
-1.4024999999999999,0.9947970947316588,0.9947970947316588,0.0
-1.397499999999999,0.9232708839910533,0.9232708839910533,0.0
-1.3925,0.8576273054942943,0.8576273054942943,0.0
-1.3874999999999993,0.8188679061306304,0.8188679061306304,0.0
-1.3825000000000003,0.7754903655661891,0.7754903655661891,0.0
-1.3774999999999995,0.743795622682285,0.743795622682285,0.0
-1.3725000000000005,0.7082249398620147,0.7082249398620147,0.0
-1.3674999999999997,0.6896973971874688,0.6896973971874688,0.0
-1.362499999999999,0.6574803645249055,0.6574803645249055,0.0
-1.3575,0.6436259409225745,0.6436259409225745,0.0
-1.3524999999999991,0.6217172591546027,0.6217172591546027,0.0
-1.3475000000000001,0.5989014425079069,0.5989014425079069,0.0
-1.3424999999999994,0.5917268302852712,0.5917268302852712,0.0
-1.3375000000000004,0.5695982370315482,0.5695982370315482,0.0
-1.3324999999999996,0.5534347428288287,0.5534347428288287,0.0
-1.3275000000000006,0.5515654951999427,0.5515654951999427,0.0
-1.3224999999999998,0.5240215816095943,0.5240215816095943,0.0
-1.317499999999999,0.5177541042656828,0.5177541042656828,0.0
-1.3125,0.5128335847719978,0.5128335847719978,0.0
-1.3074999999999992,0.4960103561120244,0.4960103561120244,0.0
-1.3025000000000002,0.49260172808287955,0.49260172808287955,0.0
-1.2974999999999994,0.48086395253090464,0.48086395253090464,0.0
-1.2925000000000004,0.45988989457737567,0.45988989457737567,0.0
-1.2874999999999996,0.482595755481196,0.482595755481196,0.0
-1.2825000000000006,0.4405926617027004,0.4405926617027004,0.0
-1.2774999999999999,0.43850350258806325,0.43850350258806325,0.0
-1.272499999999999,0.46717446254288714,0.46717446254288714,0.0
-1.2675,0.4229172760354408,0.4229172760354408,0.0
-1.2624999999999993,0.4071386269327861,0.4071386269327861,0.0
-1.2575000000000003,0.4403452612812303,0.4403452612812303,0.0
-1.2524999999999995,0.4197010705563283,0.4197010705563283,0.0
-1.2475000000000005,0.3892158408440563,0.3892158408440563,0.0
-1.2424999999999997,0.4060115805683107,0.4060115805683107,0.0
-1.237499999999999,0.4199209820420795,0.4199209820420795,0.0
-1.2325,0.3732722581270881,0.3732722581270881,0.0
-1.2274999999999991,0.3744817712987202,0.3744817712987202,0.0
-1.2225000000000001,0.4090078745616721,0.4090078745616721,0.0
-1.2174999999999994,0.38182131713566925,0.38182131713566925,0.0
-1.2125000000000004,0.34484869859373446,0.34484869859373446,0.0
-1.2074999999999996,0.3649156216685393,0.3649156216685393,0.0
-1.2025000000000006,0.4146156174483299,0.4146156174483299,0.0
-1.1974999999999998,0.3371243076567206,0.3371243076567206,0.0
-1.192499999999999,0.32090583558256325,0.32090583558256325,0.0
-1.1875,0.3729423908984612,0.3729423908984612,0.0
-1.1824999999999992,0.39353160375192525,0.39353160375192525,0.0
-1.1775000000000002,0.3144734246243382,0.3144734246243382,0.0
-1.1724999999999994,0.3112572191452255,0.3112572191452255,0.0
-1.1675000000000004,0.3590055004889735,0.3590055004889735,0.0
-1.1624999999999996,0.38333320860020936,0.38333320860020936,0.0
-1.1575000000000006,0.3036977618225252,0.3036977618225252,0.0
-1.1524999999999999,0.2971004172499866,0.2971004172499866,0.0
-1.147499999999999,0.34314438457916197,0.34314438457916197,0.0
-1.1425,0.35139106529483516,0.35139106529483516,0.0
-1.1374999999999993,0.32742071334794504,0.32742071334794504,0.0
-1.1325000000000003,0.2801397439114187,0.2801397439114187,0.0
-1.1274999999999995,0.31958636666805557,0.31958636666805557,0.0
-1.1225000000000005,0.32898758268392303,0.32898758268392303,0.0
-1.1174999999999997,0.33783901998541216,0.33783901998541216,0.0
-1.112499999999999,0.2728551759459074,0.2728551759459074,0.0
-1.1075,0.29891468700743473,0.29891468700743473,0.0
-1.1024999999999991,0.314830780788684,0.314830780788684,0.0
-1.0975000000000001,0.317277296067667,0.317277296067667,0.0
-1.0924999999999994,0.2993545099789373,0.2993545099789373,0.0
-1.0875000000000004,0.27007879343829744,0.27007879343829744,0.0
-1.0824999999999996,0.30636418858725956,0.30636418858725956,0.0
-1.0775000000000006,0.30268067120092546,0.30268067120092546,0.0
-1.0724999999999998,0.2976776849000837,0.2976776849000837,0.0
-1.067499999999999,0.27942503158272713,0.27942503158272713,0.0
-1.0625,0.2696664594025137,0.2696664594025137,0.0
-1.0574999999999992,0.30155362483645015,0.30155362483645015,0.0
-1.0525000000000002,0.2984198861644944,0.2984198861644944,0.0
-1.0474999999999994,0.27590644781070656,0.27590644781070656,0.0
-1.0425000000000004,0.2681270790022548,0.2681270790022548,0.0
-1.0374999999999996,0.2693915700453246,0.2693915700453246,0.0
-1.0325000000000006,0.292674698599242,0.292674698599242,0.0
-1.0274999999999999,0.28607735402670353,0.28607735402670353,0.0
-1.022499999999999,0.26345395993004006,0.26345395993004006,0.0
-1.0175,0.26834699048800603,0.26834699048800603,0.0
-1.0124999999999993,0.25539970176439913,0.25539970176439913,0.0
-1.0075000000000003,0.2884139135628109,0.2884139135628109,0.0
-1.0024999999999995,0.27417464486041515,0.27417464486041515,0.0
-0.9975000000000005,0.25520727921436676,0.25520727921436676,0.0
-0.9924999999999997,0.26848443516660064,0.26848443516660064,0.0
-0.9874999999999989,0.24657575339862886,0.24657575339862886,0.0
-0.9824999999999999,0.27087597257414586,0.27087597257414586,0.0
-0.9774999999999991,0.27024372705261096,0.27024372705261096,0.0
-0.9725000000000001,0.24701557637013138,0.24701557637013138,0.0
-0.9674999999999994,0.27134328448136735,0.27134328448136735,0.0
-0.9625000000000004,0.24687813169153686,0.24687813169153686,0.0
-0.9574999999999996,0.24924218016336316,0.24924218016336316,0.0
-0.9525000000000006,0.25256834138535145,0.25256834138535145,0.0
-0.9474999999999998,0.2561144140930908,0.2561144140930908,0.0
-0.942499999999999,0.25212851841384876,0.25212851841384876,0.0
-0.9375,0.2601827765794896,0.2601827765794896,0.0
-0.9324999999999992,0.2410229883834089,0.2410229883834089,0.0
-0.9275000000000002,0.24770279976310416,0.24770279976310416,0.0
-0.9224999999999994,0.23219904001763852,0.23219904001763852,0.0
-0.9175000000000004,0.2498744256848981,0.2498744256848981,0.0
-0.9124999999999996,0.2548499230500209,0.2548499230500209,0.0
-0.9075000000000006,0.24709804317728815,0.24709804317728815,0.0
-0.9024999999999999,0.24445910534827273,0.24445910534827273,0.0
-0.8974999999999991,0.22661878606669975,0.22661878606669975,0.0
-0.8925000000000001,0.22373244781621407,0.22373244781621407,0.0
-0.8874999999999993,0.2560869251573719,0.2560869251573719,0.0
-0.8825000000000003,0.2349204446538108,0.2349204446538108,0.0
-0.8774999999999995,0.24943460271339557,0.24943460271339557,0.0
-0.8725000000000005,0.24212254581216533,0.24212254581216533,0.0
-0.8674999999999997,0.21235202842858503,0.21235202842858503,0.0
-0.8624999999999989,0.22829561114555327,0.22829561114555327,0.0
-0.8574999999999999,0.24434914960539703,0.24434914960539703,0.0
-0.8524999999999991,0.22529931715219198,0.22529931715219198,0.0
-0.8475000000000001,0.23956607479030662,0.23956607479030662,0.0
-0.8424999999999994,0.23733947099707484,0.23733947099707484,0.0
-0.8375000000000004,0.21609052368635684,0.21609052368635684,0.0
-0.8324999999999996,0.22716856478107791,0.22716856478107791,0.0
-0.8275000000000006,0.23274881873201675,0.23274881873201675,0.0
-0.8224999999999998,0.21719008111511331,0.21719008111511331,0.0
-0.817499999999999,0.21955412958693962,0.21955412958693962,0.0
-0.8125,0.23514035613956202,0.23514035613956202,0.0
-0.8074999999999992,0.22967005793149878,0.22967005793149878,0.0
-0.8025000000000002,0.22323764697327364,0.22323764697327364,0.0
-0.7974999999999994,0.22824063327411548,0.22824063327411548,0.0
-0.7925000000000004,0.21595307900776228,0.21595307900776228,0.0
-0.7874999999999996,0.1907457249535212,0.1907457249535212,0.0
-0.7825000000000006,0.2178223266366483,0.2178223266366483,0.0
-0.7774999999999999,0.2432495921766406,0.2432495921766406,0.0
-0.7724999999999991,0.23382088722505426,0.23382088722505426,0.0
-0.7675000000000001,0.23041225919590938,0.23041225919590938,0.0
-0.7624999999999993,0.21510092200047612,0.21510092200047612,0.0
-0.7575000000000003,0.1743348303293315,0.1743348303293315,0.0
-0.7524999999999995,0.17672636773687678,0.17672636773687678,0.0
-0.7475000000000005,0.2385489841687069,0.2385489841687069,0.0
-0.7424999999999997,0.24528377341984006,0.24528377341984006,0.0
-0.7374999999999989,0.24096801051197114,0.24096801051197114,0.0
-0.7324999999999999,0.23651480292550758,0.23651480292550758,0.0
-0.7274999999999991,0.172658005250478,0.172658005250478,0.0
-0.7225000000000001,0.14189788618101692,0.14189788618101692,0.0
-0.7174999999999994,0.18610009481702533,0.18610009481702533,0.0
-0.7125000000000004,0.2515787396994706,0.2515787396994706,0.0
-0.7074999999999996,0.2516062286351895,0.2516062286351895,0.0
-0.7025000000000006,0.26983139301682724,0.26983139301682724,0.0
-0.6974999999999998,0.2018237660482422,0.2018237660482422,0.0
-0.692499999999999,0.13238671442227387,0.13238671442227387,0.0
-0.6875,0.13483322970125688,0.13483322970125688,0.0
-0.6824999999999992,0.2039953919700362,0.2039953919700362,0.0
-0.6775000000000002,0.2396485415974633,0.2396485415974633,0.0
-0.6724999999999994,0.2844280178835688,0.2844280178835688,0.0
-0.6675000000000004,0.2652957186232071,0.2652957186232071,0.0
-0.6624999999999996,0.16911193254273849,0.16911193254273849,0.0
-0.6575000000000006,0.10932349735410782,0.10932349735410782,0.0
-0.6524999999999999,0.13334882717243574,0.13334882717243574,0.0
-0.6474999999999991,0.2086410221065321,0.2086410221065321,0.0
-0.6425000000000001,0.2357176237896591,0.2357176237896591,0.0
-0.6374999999999993,0.3061717660372271,0.3061717660372271,0.0
-0.6325000000000003,0.2539702771070159,0.2539702771070159,0.0
-0.6274999999999995,0.15124412432544657,0.15124412432544657,0.0
-0.6225000000000005,0.09942748049529992,0.09942748049529992,0.0
-0.6174999999999997,0.13233173655083605,0.13233173655083605,0.0
-0.6124999999999989,0.19877249418344314,0.19877249418344314,0.0
-0.6074999999999999,0.23236397363195202,0.23236397363195202,0.0
-0.6024999999999991,0.3062267439086649,0.3062267439086649,0.0
-0.5975000000000001,0.2525958303210703,0.2525958303210703,0.0
-0.5924999999999994,0.15792393570514188,0.15792393570514188,0.0
-0.5875000000000004,0.1014066838670615,0.1014066838670615,0.0
-0.5824999999999996,0.11850480188422395,0.11850480188422395,0.0
-0.5775000000000006,0.18615507268846312,0.18615507268846312,0.0
-0.5724999999999998,0.21944417384406398,0.21944417384406398,0.0
-0.567499999999999,0.28385075023347167,0.28385075023347167,0.0
-0.5625,0.2652132518160503,0.2652132518160503,0.0
-0.5574999999999992,0.17950275024448675,0.17950275024448675,0.0
-0.5525000000000002,0.11732277764831082,0.11732277764831082,0.0
-0.5474999999999994,0.10591486932496284,0.10591486932496284,0.0
-0.5425000000000004,0.16190983138438392,0.16190983138438392,0.0
-0.5374999999999996,0.2097130905995696,0.2097130905995696,0.0
-0.5325000000000006,0.23005490303156348,0.23005490303156348,0.0
-0.5274999999999999,0.2743120895390097,0.2743120895390097,0.0
-0.5224999999999991,0.22483200524497055,0.22483200524497055,0.0
-0.5175000000000001,0.14035850578075793,0.14035850578075793,0.0
-0.5124999999999993,0.1132819040976309,0.1132819040976309,0.0
-0.5075000000000003,0.12562443623542183,0.12562443623542183,0.0
-0.5024999999999995,0.19060828027492666,0.19060828027492666,0.0
-0.4975000000000005,0.1925325057752504,0.1925325057752504,0.0
-0.4924999999999997,0.23885136246161495,0.23885136246161495,0.0
-0.48749999999999893,0.26730241093068746,0.26730241093068746,0.0
-0.48249999999999993,0.18387349102379352,0.18387349102379352,0.0
-0.47749999999999915,0.13725225604452104,0.13725225604452104,0.0
-0.47250000000000014,0.11341934877622549,0.11341934877622549,0.0
-0.46749999999999936,0.1546252634188726,0.1546252634188726,0.0
-0.46250000000000036,0.16072780714847074,0.16072780714847074,0.0
-0.4574999999999996,0.19555628870433062,0.19555628870433062,0.0
-0.45250000000000057,0.2452562844841211,0.2452562844841211,0.0
-0.4474999999999998,0.24674068701294236,0.24674068701294236,0.0
-0.442499999999999,0.18544036035977143,0.18544036035977143,0.0
-0.4375,0.1314795795435498,0.1314795795435498,0.0
-0.4324999999999992,0.12490972390673015,0.12490972390673015,0.0
-0.4275000000000002,0.13304644887952768,0.13304644887952768,0.0
-0.42249999999999943,0.1502820115752847,0.1502820115752847,0.0
-0.4175000000000004,0.20077918649092366,0.20077918649092366,0.0
-0.41249999999999964,0.2379992054543287,0.2379992054543287,0.0
-0.40750000000000064,0.249599536327709,0.249599536327709,0.0
-0.40249999999999986,0.19310977342534752,0.19310977342534752,0.0
-0.3974999999999991,0.12543201368538948,0.12543201368538948,0.0
-0.39250000000000007,0.11438146152638737,0.11438146152638737,0.0
-0.3874999999999993,0.119411936762948,0.119411936762948,0.0
-0.3825000000000003,0.1467084499318263,0.1467084499318263,0.0
-0.3774999999999995,0.1903883687891754,0.1903883687891754,0.0
-0.3725000000000005,0.23065965961737953,0.23065965961737953,0.0
-0.3674999999999997,0.26229942462984573,0.26229942462984573,0.0
-0.36249999999999893,0.21130744887126643,0.21130744887126643,0.0
-0.35749999999999993,0.11795502316984571,0.11795502316984571,0.0
-0.35249999999999915,0.10016968175971053,0.10016968175971053,0.0
-0.34750000000000014,0.1069869378180004,0.1069869378180004,0.0
-0.34249999999999936,0.14530651421016186,0.14530651421016186,0.0
-0.33750000000000036,0.17276796099335365,0.17276796099335365,0.0
-0.3324999999999996,0.21394638670028182,0.21394638670028182,0.0
-0.32750000000000057,0.28209145834746135,0.28209145834746135,0.0
-0.3224999999999998,0.2254917397022244,0.2254917397022244,0.0
-0.317499999999999,0.12633914856411355,0.12633914856411355,0.0
-0.3125,0.08425358797846126,0.08425358797846126,0.0
-0.3074999999999992,0.09975734772392687,0.09975734772392687,0.0
-0.3025000000000002,0.1314795795435498,0.1314795795435498,0.0
-0.29749999999999943,0.15971071652687105,0.15971071652687105,0.0
-0.2925000000000004,0.19280739513243952,0.19280739513243952,0.0
-0.28749999999999964,0.26732989986640643,0.26732989986640643,0.0
-0.28250000000000064,0.2614197786868407,0.2614197786868407,0.0
-0.27749999999999986,0.15679688934066655,0.15679688934066655,0.0
-0.2724999999999991,0.07674910852719864,0.07674910852719864,0.0
-0.26750000000000007,0.08958644150792992,0.08958644150792992,0.0
-0.2624999999999993,0.11311697048331744,0.11311697048331744,0.0
-0.2575000000000003,0.14602122653885355,0.14602122653885355,0.0
-0.2524999999999995,0.1759566775367473,0.1759566775367473,0.0
-0.2475000000000005,0.2292027460242773,0.2292027460242773,0.0
-0.24249999999999972,0.2702437270526109,0.2702437270526109,0.0
-0.23749999999999893,0.20850357742793751,0.20850357742793751,0.0
-0.23249999999999993,0.10932349735410782,0.10932349735410782,0.0
-0.22749999999999915,0.07529219493409638,0.07529219493409638,0.0
-0.22250000000000014,0.09379224867292327,0.09379224867292327,0.0
-0.21749999999999936,0.13139711273639307,0.13139711273639307,0.0
-0.21250000000000036,0.15176641410410585,0.15176641410410585,0.0
-0.20749999999999957,0.19838764908337836,0.19838764908337836,0.0
-0.20250000000000057,0.22727852052395356,0.22727852052395356,0.0
-0.1974999999999998,0.24401928237677015,0.24401928237677015,0.0
-0.192499999999999,0.18065728554468094,0.18065728554468094,0.0
-0.1875,0.0980255447736355,0.0980255447736355,0.0
-0.18249999999999922,0.08626028028594172,0.08626028028594172,0.0
-0.1775000000000002,0.09189551210831844,0.09189551210831844,0.0
-0.17249999999999943,0.12985773233613407,0.12985773233613407,0.0
-0.16750000000000043,0.1757917439224338,0.1757917439224338,0.0
-0.16249999999999964,0.19376950788260136,0.19376950788260136,0.0
-0.15750000000000064,0.20946569017809943,0.20946569017809943,0.0
-0.15249999999999986,0.21207713907139594,0.21207713907139594,0.0
-0.14749999999999908,0.17650645625112546,0.17650645625112546,0.0
-0.14250000000000007,0.11130270072586938,0.11130270072586938,0.0
-0.1374999999999993,0.10173655109568845,0.10173655109568845,0.0
-0.13250000000000028,0.0807899820778785,0.0807899820778785,0.0
-0.1274999999999995,0.1281534183215616,0.1281534183215616,0.0
-0.1225000000000005,0.1752969430794934,0.1752969430794934,0.0
-0.11749999999999972,0.18642996204565224,0.18642996204565224,0.0
-0.11249999999999893,0.1947591095684822,0.1947591095684822,0.0
-0.10749999999999993,0.18653991778852788,0.18653991778852788,0.0
-0.10249999999999915,0.17023897890721382,0.17023897890721382,0.0
-0.09750000000000014,0.14217277553820606,0.14217277553820606,0.0
-0.09249999999999936,0.12249069756346603,0.12249069756346603,0.0
-0.08750000000000036,0.08018522549206249,0.08018522549206249,0.0
-0.08249999999999957,0.10844385141110266,0.10844385141110266,0.0
-0.07750000000000057,0.16212974287013518,0.16212974287013518,0.0
-0.07249999999999979,0.17691879028690913,0.17691879028690913,0.0
-0.067499999999999,0.17463720862223955,0.17463720862223955,0.0
-0.0625,0.1837910242166368,0.1837910242166368,0.0
-0.05749999999999922,0.1497597217966254,0.1497597217966254,0.0
-0.05250000000000021,0.1595182939768387,0.1595182939768387,0.0
-0.04749999999999943,0.1667753730066311,0.1667753730066311,0.0
-0.042500000000000426,0.0925552465655723,0.0925552465655723,0.0
-0.037499999999999645,0.08117482717794326,0.08117482717794326,0.0
-0.03250000000000064,0.1402485500378823,0.1402485500378823,0.0
-0.027499999999999858,0.16259705477735667,0.16259705477735667,0.0
-0.022499999999999076,0.1573466680550447,0.1573466680550447,0.0
-0.01750000000000007,0.1768638124154713,0.1768638124154713,0.0
-0.01249999999999929,0.15861115909811463,0.15861115909811463,0.0
-0.007500000000000284,0.13065491147198247,0.13065491147198247,0.0
-0.0024999999999995026,0.19099312537499138,0.19099312537499138,0.0
0.0024999999999995026,0.14778051842486387,0.14778051842486387,0.0
0.007500000000000284,0.07914064593474388,0.07914064593474388,0.0
0.012500000000001066,0.10640967016790326,0.10640967016790326,0.0
0.01750000000000007,0.14118317385232523,0.14118317385232523,0.0
0.022500000000000853,0.1461586712174481,0.1461586712174481,0.0
0.027499999999999858,0.15784146889798514,0.15784146889798514,0.0
0.03250000000000064,0.16924937722133304,0.16924937722133304,0.0
0.037499999999999645,0.12977526552897733,0.12977526552897733,0.0
0.042500000000000426,0.1385167470875909,0.1385167470875909,0.0
0.04749999999999943,0.2017412992410855,0.2017412992410855,0.0
0.05250000000000021,0.12507465752104363,0.12507465752104363,0.0
0.057500000000000995,0.08502327817859076,0.08502327817859076,0.0
0.0625,0.12320540989215768,0.12320540989215768,0.0
0.06750000000000078,0.13087482295773373,0.13087482295773373,0.0
0.07249999999999979,0.1374171896588345,0.1374171896588345,0.0
0.07750000000000057,0.16314683349173487,0.16314683349173487,0.0
