i,theta,chi2_min,chi2_avg
1.0,10.0,29.8872,55.8566
2.0,9.09090909,29.0486,52.9677
3.0,8.26446281,25.2079,45.4385
4.0,7.51314801,24.222,42.9082
5.0,6.83013455,22.0267,38.703
6.0,6.20921323,19.9132,36.1241
7.0,5.6447393,19.0197,32.1854
8.0,5.13158118,16.8019,28.8716
9.0,4.6650738,14.6552,26.8892
10.0,4.24097618,14.4558,25.6348
11.0,3.85543289,13.7594,23.0557
12.0,3.50493899,12.3376,20.2312
13.0,3.18630818,11.9594,19.2226
14.0,2.8966438,10.6481,17.8317
15.0,2.63331254,9.9936,16.2609
16.0,2.39392049,9.5684,14.7448
17.0,2.17629136,8.1688,13.6309
18.0,1.97844669,7.1762,12.3892
19.0,1.7985879,7.1762,11.6149
20.0,1.63507991,7.1762,10.8875
21.0,1.48643628,6.6313,10.21
22.0,1.35130571,6.2566,9.2035
23.0,1.22845974,5.2052,8.2968
24.0,1.11678158,4.9392,7.8907
25.0,1.01525598,4.9392,7.2139
26.0,0.92295998,4.6196,6.7723
27.0,0.83905453,3.9939,6.0361
28.0,0.76277684,3.7062,5.7702
29.0,0.69343349,3.5585,5.254
30.0,0.63039409,3.4384,4.9586
31.0,0.57308553,3.1877,4.5771
32.0,0.52098685,3.0284,4.2338
33.0,0.47362441,2.7542,3.9167
34.0,0.43056764,2.6111,3.7286
35.0,0.39142513,2.4101,3.435
36.0,0.35584103,2.3719,3.2069
37.0,0.32349184,2.0232,2.9237
38.0,0.29408349,1.9372,2.7829
39.0,0.26734863,1.8719,2.5713
40.0,0.24304421,1.824,2.403
41.0,0.22094928,1.6854,2.3201
42.0,0.20086298,1.567,2.1574
43.0,0.18260271,1.4955,2.0241
44.0,0.16600247,1.4955,1.8828
45.0,0.15091133,1.3647,1.7669
46.0,0.13719212,1.3035,1.6479
47.0,0.12472011,1.2029,1.5695
48.0,0.11338192,1.1621,1.4743
49.0,0.10307447,1.0827,1.3948
50.0,0.09370406,1.0433,1.3195
51.0,0.08518551,1.0433,1.266
52.0,0.07744138,1.0095,1.2081
53.0,0.07040125,0.9556,1.1465
54.0,0.06400114,0.9058,1.0843
55.0,0.05818285,0.8661,1.0383
56.0,0.0528935,0.8661,1.0014
57.0,0.048085,0.842,0.9606
58.0,0.04371364,0.7924,0.9247
59.0,0.03973967,0.7924,0.9053
60.0,0.03612697,0.7621,0.8696
61.0,0.0328427,0.756,0.8423
62.0,0.029857,0.7269,0.8204
63.0,0.02714273,0.7158,0.7967
64.0,0.02467521,0.7158,0.7744
65.0,0.02243201,0.7,0.7615
66.0,0.02039273,0.6901,0.7479
67.0,0.01853885,0.6849,0.7328
68.0,0.0168535,0.6799,0.7185
69.0,0.01532136,0.6758,0.7109
70.0,0.01392851,0.6646,0.7002
71.0,0.01266228,0.6638,0.6926
72.0,0.01151117,0.6588,0.6861
73.0,0.0104647,0.6539,0.6772
74.0,0.00951336,0.6528,0.6719
75.0,0.00864851,0.6474,0.6671
76.0,0.00786228,0.6438,0.6626
77.0,0.00714753,0.6376,0.6567
78.0,0.00649775,0.637,0.654
79.0,0.00590705,0.6355,0.6494
80.0,0.00537004,0.634,0.6471
81.0,0.00488186,0.6334,0.6434
82.0,0.00443805,0.6297,0.6426
83.0,0.00403459,0.629,0.639
84.0,0.00366781,0.6283,0.6372
85.0,0.00333438,0.6271,0.6338
86.0,0.00303125,0.6226,0.6328
87.0,0.00275568,0.6213,0.6298
88.0,0.00250517,0.6208,0.6267
89.0,0.00227742,0.6186,0.6252
90.0,0.00207038,0.6149,0.6229
91.0,0.00188217,0.6144,0.6195
92.0,0.00171106,0.6122,0.6174
93.0,0.00155551,0.6117,0.6153
94.0,0.0014141,0.6096,0.6144
95.0,0.00128555,0.6069,0.6115
96.0,0.00116868,0.6057,0.6097
97.0,0.00106243,0.6039,0.6074
98.0,0.00096585,0.6018,0.6054
99.0,0.00087805,0.6018,0.6044
100.0,0.00079822,0.6016,0.6046
101.0,0.00072566,0.5998,0.6023
102.0,0.00065969,0.5981,0.601
103.0,0.00059972,0.5971,0.599
104.0,0.0005452,0.5968,0.5988
105.0,0.00049563,0.5954,0.5972
106.0,0.00045058,0.5942,0.5956
107.0,0.00040961,0.5931,0.5944
108.0,0.00037238,0.5922,0.5936
109.0,0.00033852,0.5916,0.5929
110.0,0.00030775,0.5901,0.5911
111.0,0.00027977,0.5894,0.5903
112.0,0.00025434,0.5889,0.5898
113.0,0.00023122,0.5881,0.5888
114.0,0.0002102,0.588,0.5886
115.0,0.00019109,0.5869,0.5875
116.0,0.00017372,0.5862,0.5868
117.0,0.00015792,0.5858,0.5861
118.0,0.00014357,0.5855,0.586
119.0,0.00013052,0.5854,0.5857
120.0,0.00011865,0.5843,0.5848
121.0,0.00010786,0.5841,0.5845
122.0,9.806e-5,0.584,0.5842
123.0,8.914e-5,0.5836,0.5839
124.0,8.104e-5,0.5834,0.5836
125.0,7.367e-5,0.5832,0.5834
126.0,6.698e-5,0.5829,0.5831
127.0,6.089e-5,0.5826,0.5828
128.0,5.535e-5,0.5825,0.5827
129.0,5.032e-5,0.5823,0.5825
130.0,4.574e-5,0.5822,0.5824
131.0,4.159e-5,0.5821,0.5823
132.0,3.781e-5,0.582,0.5821
133.0,3.437e-5,0.5819,0.582
134.0,3.124e-5,0.5818,0.5819
135.0,2.84e-5,0.5816,0.5817
136.0,2.582e-5,0.5815,0.5816
137.0,2.347e-5,0.5814,0.5815
138.0,2.134e-5,0.5813,0.5814
139.0,1.94e-5,0.5812,0.5813
140.0,1.764e-5,0.5811,0.5811
141.0,1.603e-5,0.5809,0.5809
142.0,1.458e-5,0.5808,0.5809
143.0,1.325e-5,0.5807,0.5807
144.0,1.205e-5,0.5805,0.5806
145.0,1.095e-5,0.5805,0.5805
146.0,9.96e-6,0.5805,0.5805
147.0,9.05e-6,0.5805,0.5805
148.0,8.23e-6,0.5804,0.5805
149.0,7.48e-6,0.5804,0.5804
150.0,6.8e-6,0.5804,0.5804
