omega,S,S_edge,S_cont,Sr,Sr_edge,Sr_cont
-1.5024999999999995,0.0,0.0,0.0
-1.4975000000000005,0.0007555530331883453,0.0007555530331883453,0.0
-1.4924999999999997,0.0016389688873777951,0.0016389688873777951,0.0
-1.4875000000000007,0.018040281653974033,0.018040281653974033,0.0
-1.4825,0.0649775608541977,0.0649775608541977,0.0
-1.4774999999999991,0.18348314813658514,0.18348314813658514,0.0
-1.4725000000000001,0.4218310703754625,0.4218310703754625,0.0
-1.4674999999999994,0.7762203146192517,0.7762203146192517,0.0
-1.4625000000000004,1.214522441118218,1.214522441118218,0.0
-1.4574999999999996,1.594588864597585,1.594588864597585,0.0
-1.4525000000000006,1.7940316175736677,1.7940316175736677,0.0
-1.4474999999999998,1.804318762717847,1.804318762717847,0.0
-1.442499999999999,1.6503138067684293,1.6503138067684293,0.0
-1.4375,1.43542290023685,1.43542290023685,0.0
-1.4324999999999992,1.2396649212841626,1.2396649212841626,0.0
-1.4275000000000002,1.0909488365670614,1.0909488365670614,0.0
-1.4224999999999994,0.988658579766178,0.988658579766178,0.0
-1.4175000000000004,0.9206006873151354,0.9206006873151354,0.0
-1.4124999999999996,0.8617024224048996,0.8617024224048996,0.0
-1.4075000000000006,0.8168690678047846,0.8168690678047846,0.0
-1.4024999999999999,0.7750114297661503,0.7750114297661503,0.0
-1.397499999999999,0.7413718839500413,0.7413718839500413,0.0
-1.3925,0.7116844616921486,0.7116844616921486,0.0
-1.3874999999999993,0.6874253973803935,0.6874253973803935,0.0
-1.3825000000000003,0.6609229217547101,0.6609229217547101,0.0
-1.3774999999999995,0.6422433259957304,0.6422433259957304,0.0
-1.3725000000000005,0.6213203189228225,0.6213203189228225,0.0
-1.3674999999999997,0.6038961035882173,0.6038961035882173,0.0
-1.362499999999999,0.5881922243907182,0.5881922243907182,0.0
-1.3575,0.574557398114873,0.574557398114873,0.0
-1.3524999999999991,0.5594928330223793,0.5594928330223793,0.0
-1.3475000000000001,0.5481711614173723,0.5481711614173723,0.0
-1.3424999999999994,0.5358730828156297,0.5358730828156297,0.0
-1.3375000000000004,0.523121672393974,0.523121672393974,0.0
-1.3324999999999996,0.514845460707357,0.514845460707357,0.0
-1.3275000000000006,0.5033843023885307,0.5033843023885307,0.0
-1.3224999999999998,0.4937248474565383,0.4937248474565383,0.0
-1.317499999999999,0.4861344454462,0.4861344454462,0.0
-1.3125,0.4777419948314002,0.4777419948314002,0.0
-1.3074999999999992,0.4696052698586027,0.4696052698586027,0.0
-1.3025000000000002,0.4614452971001685,0.4614452971001685,0.0
-1.2974999999999994,0.45654001433085334,0.45654001433085334,0.0
-1.2925000000000004,0.4466597054353134,0.4466597054353134,0.0
-1.2874999999999996,0.44162655984499716,0.44162655984499716,0.0
-1.2825000000000006,0.43544264886567113,0.43544264886567113,0.0
-1.2774999999999999,0.43175787484227557,0.43175787484227557,0.0
-1.272499999999999,0.42197055708928205,0.42197055708928205,0.0
-1.2675,0.4167979247851464,0.4167979247851464,0.0
-1.2624999999999993,0.41564715939613656,0.41564715939613656,0.0
-1.2575000000000003,0.4070222309249709,0.4070222309249709,0.0
-1.2524999999999995,0.40230293044074833,0.40230293044074833,0.0
-1.2475000000000005,0.39773474056316344,0.39773474056316344,0.0
-1.2424999999999997,0.39491013460832086,0.39491013460832086,0.0
-1.237499999999999,0.39029544915946285,0.39029544915946285,0.0
-1.2325,0.38375119750276987,0.38375119750276987,0.0
-1.2274999999999991,0.3809033437622908,0.3809033437622908,0.0
-1.2225000000000001,0.3802407818716487,0.3802407818716487,0.0
-1.2174999999999994,0.36941893765782796,0.36941893765782796,0.0
-1.2125000000000004,0.3722551675054888,0.3722551675054888,0.0
-1.2074999999999996,0.366664075059895,0.366664075059895,0.0
-1.2025000000000006,0.358178633302549,0.358178633302549,0.0
-1.1974999999999998,0.36381622131941593,0.36381622131941593,0.0
-1.192499999999999,0.3539707841023308,0.3539707841023308,0.0
-1.1875,0.35437762035097076,0.35437762035097076,0.0
-1.1824999999999992,0.34949558536729214,0.34949558536729214,0.0
-1.1775000000000002,0.34354415224433166,0.34354415224433166,0.0
-1.1724999999999994,0.3491701163683803,0.3491701163683803,0.0
-1.1675000000000004,0.3371975067655496,0.3371975067655496,0.0
-1.1624999999999996,0.3399872410419373,0.3399872410419373,0.0
-1.1575000000000006,0.3355120423068986,0.3355120423068986,0.0
-1.1524999999999999,0.3305718878591287,0.3305718878591287,0.0
-1.147499999999999,0.3331988876360605,0.3331988876360605,0.0
-1.1425,0.3248645564853521,0.3248645564853521,0.0
-1.1374999999999993,0.3290142862214788,0.3290142862214788,0.0
-1.1325000000000003,0.32090080903431784,0.32090080903431784,0.0
-1.1274999999999995,0.3206450833923157,0.3206450833923157,0.0
-1.1225000000000005,0.318889875576755,0.318889875576755,0.0
-1.1174999999999997,0.31456578744835406,0.31456578744835406,0.0
-1.112499999999999,0.3176577429380171,0.3176577429380171,0.0
-1.1075,0.30766119511429435,0.30766119511429435,0.0
-1.1024999999999991,0.3140078405930764,0.3140078405930764,0.0
-1.0975000000000001,0.3049876997660894,0.3049876997660894,0.0
-1.0924999999999994,0.30821914196957195,0.30821914196957195,0.0
-1.0875000000000004,0.29969882853377106,0.29969882853377106,0.0
-1.0824999999999996,0.3049644519804529,0.3049644519804529,0.0
-1.0775000000000006,0.29739729775575113,0.29739729775575113,0.0
-1.0724999999999998,0.29969882853377106,0.29969882853377106,0.0
-1.067499999999999,0.2955607226904626,0.2955607226904626,0.0
-1.0625,0.2960489261888304,0.2960489261888304,0.0
-1.0574999999999992,0.29250363887925435,0.29250363887925435,0.0
-1.0525000000000002,0.29224791323725213,0.29224791323725213,0.0
-1.0474999999999994,0.2895627939962289,0.2895627939962289,0.0
-1.0425000000000004,0.28795869678730596,0.28795869678730596,0.0
-1.0374999999999996,0.28627323232865504,0.28627323232865504,0.0
-1.0325000000000006,0.28519221029655484,0.28519221029655484,0.0
-1.0274999999999999,0.28228623709198425,0.28228623709198425,0.0
-1.022499999999999,0.2828906795185349,0.2828906795185349,0.0
-1.0175,0.27905479488850177,0.27905479488850177,0.0
-1.0124999999999993,0.2791361621382298,0.2791361621382298,0.0
-1.0075000000000003,0.2767067685392088,0.2767067685392088,0.0
-1.0024999999999995,0.27743907378676047,0.27743907378676047,0.0
-0.9975000000000005,0.27373105197772846,0.27373105197772846,0.0
-0.9924999999999997,0.27492831293801157,0.27492831293801157,0.0
-0.9874999999999989,0.27024388413224376,0.27024388413224376,0.0
-0.9824999999999999,0.2725802865887185,0.2725802865887185,0.0
-0.9774999999999991,0.2672565436779452,0.2672565436779452,0.0
-0.9725000000000001,0.2698719195620588,0.2698719195620588,0.0
-0.9674999999999994,0.2640483492600994,0.2640483492600994,0.0
-0.9625000000000004,0.2666056056801215,0.2666056056801215,0.0
-0.9574999999999996,0.26483877397174255,0.26483877397174255,0.0
-0.9525000000000006,0.262467499836813,0.262467499836813,0.0
-0.9474999999999998,0.26381587140373375,0.26381587140373375,0.0
-0.942499999999999,0.2578760621735915,0.2578760621735915,0.0
-0.9375,0.26390886254628004,0.26390886254628004,0.0
-0.9324999999999992,0.2534706067954625,0.2534706067954625,0.0
-0.9275000000000002,0.261932800767172,0.261932800767172,0.0
-0.9224999999999994,0.2523663369777257,0.2523663369777257,0.0
-0.9175000000000004,0.25767845599568073,0.25767845599568073,0.0
-0.9124999999999996,0.2539471864010121,0.2539471864010121,0.0
-0.9075000000000006,0.24928600538088094,0.24928600538088094,0.0
-0.9024999999999999,0.2555280358242985,0.2555280358242985,0.0
-0.8974999999999991,0.24610105874867164,0.24610105874867164,0.0
-0.8925000000000001,0.2575854648531345,0.2575854648531345,0.0
-0.8874999999999993,0.24292773600928058,0.24292773600928058,0.0
-0.8825000000000003,0.2524709520130902,0.2524709520130902,0.0
-0.8774999999999995,0.24352055454301297,0.24352055454301297,0.0
-0.8725000000000005,0.24374140850656026,0.24374140850656026,0.0
-0.8674999999999997,0.2515642883732642,0.2515642883732642,0.0
-0.8624999999999989,0.23747613027750622,0.23747613027750622,0.0
-0.8574999999999999,0.25078548755443936,0.25078548755443936,0.0
-0.8524999999999991,0.2352908384276691,0.2352908384276691,0.0
-0.8475000000000001,0.24417149254083673,0.24417149254083673,0.0
-0.8424999999999994,0.24094005033735427,0.24094005033735427,0.0
-0.8375000000000004,0.23602314367522084,0.23602314367522084,0.0
-0.8324999999999996,0.24594994814203394,0.24594994814203394,0.0
-0.8275000000000006,0.23057153794344654,0.23057153794344654,0.0
-0.8224999999999998,0.2418118422987255,0.2418118422987255,0.0
-0.817499999999999,0.2319547811888221,0.2319547811888221,0.0
-0.8125,0.23705767013604806,0.23705767013604806,0.0
-0.8074999999999992,0.23610451092494877,0.23610451092494877,0.0
-0.8025000000000002,0.23112948479872408,0.23112948479872408,0.0
-0.7974999999999994,0.2364067321382242,0.2364067321382242,0.0
-0.7925000000000004,0.2264683037785929,0.2264683037785929,0.0
-0.7874999999999996,0.23709254181450284,0.23709254181450284,0.0
-0.7825000000000006,0.2264101843145015,0.2264101843145015,0.0
-0.7774999999999999,0.2324894802584631,0.2324894802584631,0.0
-0.7724999999999991,0.22911855134116121,0.22911855134116121,0.0
-0.7675000000000001,0.2231322465397459,0.2231322465397459,0.0
-0.7624999999999993,0.23686006395813725,0.23686006395813725,0.0
-0.7575000000000003,0.21812234873506622,0.21812234873506622,0.0
-0.7524999999999995,0.23051341847935514,0.23051341847935514,0.0
-0.7475000000000005,0.22563138349567655,0.22563138349567655,0.0
-0.7424999999999997,0.21845944162679642,0.21845944162679642,0.0
-0.7374999999999989,0.23599989588958437,0.23599989588958437,0.0
-0.7324999999999999,0.21135724311482595,0.21135724311482595,0.0
-0.7274999999999991,0.22777017977424047,0.22777017977424047,0.0
-0.7225000000000001,0.22556164013876684,0.22556164013876684,0.0
-0.7174999999999994,0.20882323448044043,0.20882323448044043,0.0
-0.7125000000000004,0.23522109507075942,0.23522109507075942,0.0
-0.7074999999999996,0.210287844975544,0.210287844975544,0.0
-0.7025000000000006,0.22038900783463128,0.22038900783463128,0.0
-0.6974999999999998,0.22617770645813584,0.22617770645813584,0.0
-0.692499999999999,0.20531281884931918,0.20531281884931918,0.0
-0.6875,0.2294905159113463,0.2294905159113463,0.0
-0.6824999999999992,0.2127869819314747,0.2127869819314747,0.0
-0.6775000000000002,0.20697503552233354,0.20697503552233354,0.0
-0.6724999999999994,0.23071102465726587,0.23071102465726587,0.0
-0.6675000000000004,0.20268581907238736,0.20268581907238736,0.0
-0.6624999999999996,0.21838969826988675,0.21838969826988675,0.0
-0.6575000000000006,0.217413291273151,0.217413291273151,0.0
-0.6524999999999999,0.20358085881939514,0.20358085881939514,0.0
-0.6474999999999991,0.22539890563931095,0.22539890563931095,0.0
-0.6425000000000001,0.20519657992113638,0.20519657992113638,0.0
-0.6374999999999993,0.20540580999186545,0.20540580999186545,0.0
-0.6325000000000003,0.22308575096847277,0.22308575096847277,0.0
-0.6274999999999995,0.20041915997282234,0.20041915997282234,0.0
-0.6225000000000005,0.21035758833245374,0.21035758833245374,0.0
-0.6174999999999997,0.2140423623558492,0.2140423623558492,0.0
-0.6124999999999989,0.20174428375410658,0.20174428375410658,0.0
-0.6074999999999999,0.21549534895813444,0.21549534895813444,0.0
-0.6024999999999991,0.20229060671656585,0.20229060671656585,0.0
-0.5975000000000001,0.20405743842494473,0.20405743842494473,0.0
-0.5924999999999994,0.2167739771681455,0.2167739771681455,0.0
-0.5875000000000004,0.1963972930576967,0.1963972930576967,0.0
-0.5824999999999996,0.20559179227695798,0.20559179227695798,0.0
-0.5775000000000006,0.21243826514692618,0.21243826514692618,0.0
-0.5724999999999998,0.19532789491841476,0.19532789491841476,0.0
-0.567499999999999,0.2056034161697763,0.2056034161697763,0.0
-0.5625,0.20727725673560887,0.20727725673560887,0.0
-0.5574999999999992,0.19614156741569458,0.19614156741569458,0.0
-0.5525000000000002,0.20678905323724106,0.20678905323724106,0.0
-0.5474999999999994,0.2020465049673819,0.2020465049673819,0.0
-0.5425000000000004,0.19708310273397542,0.19708310273397542,0.0
-0.5374999999999996,0.2071493939146078,0.2071493939146078,0.0
-0.5325000000000006,0.19513028874050398,0.19513028874050398,0.0
-0.5274999999999999,0.1982919875870767,0.1982919875870767,0.0
-0.5224999999999991,0.20647520813114745,0.20647520813114745,0.0
-0.5175000000000001,0.19267764735584642,0.19267764735584642,0.0
-0.5124999999999993,0.19587421788087403,0.19587421788087403,0.0
-0.5075000000000003,0.20633572141732803,0.20633572141732803,0.0
-0.5024999999999995,0.1913641474673805,0.1913641474673805,0.0
-0.4975000000000005,0.1934680720674896,0.1934680720674896,0.0
-0.4924999999999997,0.20582427013332363,0.20582427013332363,0.0
-0.48749999999999893,0.19037611657782652,0.19037611657782652,0.0
-0.48249999999999993,0.1910038067900138,0.1910038067900138,0.0
-0.47749999999999915,0.20434803574540175,0.20434803574540175,0.0
-0.47250000000000014,0.19088756786183092,0.19088756786183092,0.0
-0.46749999999999936,0.1879467229788055,0.1879467229788055,0.0
-0.46250000000000036,0.20188377046792597,0.20188377046792597,0.0
-0.4574999999999996,0.19214294828620543,0.19214294828620543,0.0
-0.45250000000000057,0.18564519220078562,0.18564519220078562,0.0
-0.4474999999999998,0.19910566008435646,0.19910566008435646,0.0
-0.442499999999999,0.1932123464254874,0.1932123464254874,0.0
-0.4375,0.18308793578076357,0.18308793578076357,0.0
-0.4324999999999992,0.19587421788087397,0.19587421788087397,0.0
-0.4275000000000002,0.1954325099537793,0.1954325099537793,0.0
-0.42249999999999943,0.18107700232320073,0.18107700232320073,0.0
-0.4175000000000004,0.19292174910503035,0.19292174910503035,0.0
-0.41249999999999964,0.19610669573723966,0.19610669573723966,0.0
-0.40750000000000064,0.17915906000818418,0.17915906000818418,0.0
-0.40249999999999986,0.1913060280032891,0.1913060280032891,0.0
-0.3974999999999991,0.1956766117029632,0.1956766117029632,0.0
-0.39250000000000007,0.1774387238710784,0.1774387238710784,0.0
-0.3874999999999993,0.1897949219369124,0.1897949219369124,0.0
-0.3825000000000003,0.19478157195595552,0.19478157195595552,0.0
-0.3774999999999995,0.17847325033190556,0.17847325033190556,0.0
-0.3725000000000005,0.18454092238304884,0.18454092238304884,0.0
-0.3674999999999997,0.1939330277802209,0.1939330277802209,0.0
-0.36249999999999893,0.18107700232320073,0.18107700232320073,0.0
-0.35749999999999993,0.17980999800600794,0.17980999800600794,0.0
-0.35249999999999915,0.19171286425192902,0.19171286425192902,0.0
-0.34750000000000014,0.18678433369697733,0.18678433369697733,0.0
-0.34249999999999936,0.1712780606773888,0.1712780606773888,0.0
-0.33750000000000036,0.19003902368609635,0.19003902368609635,0.0
-0.3324999999999996,0.1931658508542143,0.1931658508542143,0.0
-0.32750000000000057,0.16386201705932474,0.16386201705932474,0.0
-0.3224999999999998,0.18974842636563927,0.18974842636563927,0.0
-0.317499999999999,0.19603695238032998,0.19603695238032998,0.0
-0.3125,0.15889861482591824,0.15889861482591824,0.0
-0.3074999999999992,0.18820244862080776,0.18820244862080776,0.0
-0.3025000000000002,0.19840822651525958,0.19840822651525958,0.0
-0.29749999999999943,0.15901485375410104,0.15901485375410104,0.0
-0.2925000000000004,0.18291357738848932,0.18291357738848932,0.0
-0.28749999999999964,0.1958974656665106,0.1958974656665106,0.0
-0.28250000000000064,0.1665238885147114,0.1665238885147114,0.0
-0.27749999999999986,0.17262643224430954,0.17262643224430954,0.0
-0.2724999999999991,0.1921080766077506,0.1921080766077506,0.0
-0.26750000000000007,0.1776363300489892,0.1776363300489892,0.0
-0.2624999999999993,0.1632924463112289,0.1632924463112289,0.0
-0.2575000000000003,0.18520348427369093,0.18520348427369093,0.0
-0.2524999999999995,0.19108517403974176,0.19108517403974176,0.0
-0.2475000000000005,0.15584153101471,0.15584153101471,0.0
-0.24249999999999972,0.17618334344670392,0.17618334344670392,0.0
-0.23749999999999893,0.20205812886020016,0.20205812886020016,0.0
-0.23249999999999993,0.15336564184441587,0.15336564184441587,0.0
-0.22749999999999915,0.17015054307401542,0.17015054307401542,0.0
-0.22250000000000014,0.19862908047880695,0.19862908047880695,0.0
-0.21749999999999936,0.1648849196273336,0.1648849196273336,0.0
-0.21250000000000036,0.16332731798968375,0.16332731798968375,0.0
-0.20749999999999957,0.18205340931993644,0.18205340931993644,0.0
-0.20250000000000057,0.1859357895212427,0.1859357895212427,0.0
-0.1974999999999998,0.1547837567682463,0.1547837567682463,0.0
-0.192499999999999,0.1689997776850055,0.1689997776850055,0.0
-0.1875,0.20113984132755586,0.20113984132755586,0.0
-0.18249999999999922,0.15329589848750616,0.15329589848750616,0.0
-0.1775000000000002,0.16312971181177296,0.16312971181177296,0.0
-0.17249999999999943,0.19227081110720654,0.19227081110720654,0.0
-0.16750000000000043,0.16673311858544046,0.16673311858544046,0.0
-0.16249999999999964,0.15836391575627726,0.15836391575627726,0.0
-0.15750000000000064,0.1724636977448536,0.1724636977448536,0.0
-0.15249999999999986,0.1891672317247252,0.1891672317247252,0.0
-0.14749999999999908,0.15470238951851834,0.15470238951851834,0.0
-0.14250000000000007,0.16206031367249096,0.16206031367249096,0.0
-0.1374999999999993,0.19241029782102592,0.19241029782102592,0.0
-0.13250000000000028,0.16145587124594032,0.16145587124594032,0.0
-0.1274999999999995,0.15587640269316483,0.15587640269316483,0.0
-0.1225000000000005,0.17550915766324351,0.17550915766324351,0.0
-0.11749999999999972,0.17654368412407065,0.17654368412407065,0.0
-0.11249999999999893,0.15786408836509108,0.15786408836509108,0.0
-0.10749999999999993,0.16232766320731146,0.16232766320731146,0.0
-0.10249999999999915,0.18472690466814135,0.18472690466814135,0.0
-0.09750000000000014,0.1634319330250483,0.1634319330250483,0.0
-0.09249999999999936,0.1536097435935998,0.1536097435935998,0.0
-0.08750000000000036,0.17526505591405964,0.17526505591405964,0.0
-0.08249999999999957,0.16812798572363433,0.16812798572363433,0.0
-0.07750000000000057,0.16059570317738744,0.16059570317738744,0.0
-0.07249999999999979,0.16171159688794248,0.16171159688794248,0.0
-0.067499999999999,0.17484659577260145,0.17484659577260145,0.0
-0.0625,0.16474543291351418,0.16474543291351418,0.0
-0.05749999999999922,0.15415606655605904,0.15415606655605904,0.0
-0.05250000000000021,0.1714756668552996,0.1714756668552996,0.0
-0.04749999999999943,0.16254851717085883,0.16254851717085883,0.0
-0.042500000000000426,0.1655823531964305,0.1655823531964305,0.0
-0.037499999999999645,0.15904972543255588,0.15904972543255588,0.0
-0.03250000000000064,0.16707021147717063,0.16707021147717063,0.0
-0.027499999999999858,0.16068869431993368,0.16068869431993368,0.0
-0.022499999999999076,0.16089792439066278,0.16089792439066278,0.0
-0.01750000000000007,0.16560560098206709,0.16560560098206709,0.0
-0.01249999999999929,0.15438854441242472,0.15438854441242472,0.0
-0.007500000000000284,0.16823260075899887,0.16823260075899887,0.0
-0.0024999999999995026,0.15921245993201186,0.15921245993201186,0.0
0.0024999999999995026,0.16242065434985775,0.16242065434985775,0.0
0.007500000000000284,0.15403982762787624,0.15403982762787624,0.0
0.012500000000001066,0.1689300343280958,0.1689300343280958,0.0
0.01750000000000007,0.1594216900027409,0.1594216900027409,0.0
0.022500000000000853,0.15163368181449183,0.15163368181449183,0.0
0.027499999999999858,0.16093279606911762,0.16093279606911762,0.0
0.03250000000000064,0.16612867615888977,0.16612867615888977,0.0
0.037499999999999645,0.15953792893092375,0.15953792893092375,0.0
0.042500000000000426,0.14334584623505656,0.14334584623505656,0.0
0.04749999999999943,0.171161821749206,0.171161821749206,0.0
0.05250000000000021,0.15965416785910655,0.15965416785910655,0.0
0.057500000000000995,0.15108735885203253,0.15108735885203253,0.0
0.0625,0.14689113354463262,0.14689113354463262,0.0
0.06750000000000078,0.17781068844126344,0.17781068844126344,0.0
0.07249999999999979,0.1558880265859831,0.1558880265859831,0.0
0.07750000000000057,0.13982380671111705,0.13982380671111705,0.0
0.08249999999999957,0.1548186284467012,0.1548186284467012,0.0
0.08750000000000036,0.17389343656150233,0.17389343656150233,0.0
0.09249999999999936,0.1550627301958851,0.1550627301958851,0.0
