i,theta,chi2_min,chi2_avg
1.0,10.0,6.0039,15.3977
2.0,9.09090909,4.8944,13.4595
3.0,8.26446281,4.8944,11.8607
4.0,7.51314801,3.3791,9.0745
5.0,6.83013455,3.3791,9.0208
6.0,6.20921323,3.1893,7.8396
7.0,5.6447393,3.1893,7.7771
8.0,5.13158118,2.8329,6.9284
9.0,4.6650738,2.8329,6.6765
10.0,4.24097618,2.8329,5.9505
11.0,3.85543289,2.5067,5.2126
12.0,3.50493899,2.2888,4.9017
13.0,3.18630818,2.2888,4.9135
14.0,2.8966438,1.8197,4.0241
15.0,2.63331254,1.8197,3.3446
16.0,2.39392049,1.8197,3.3855
17.0,2.17629136,1.66,3.3073
18.0,1.97844669,1.5023,2.9527
19.0,1.7985879,1.4056,2.8403
20.0,1.63507991,1.237,2.3151
21.0,1.48643628,1.1168,1.951
22.0,1.35130571,1.1168,2.2192
23.0,1.22845974,1.1168,1.7857
24.0,1.11678158,1.0714,1.8113
25.0,1.01525598,1.0714,1.5788
26.0,0.92295998,0.9841,1.5152
27.0,0.83905453,0.9841,1.6454
28.0,0.76277684,0.984,1.4276
29.0,0.69343349,0.941,1.3023
30.0,0.63039409,0.941,1.275
31.0,0.57308553,0.9102,1.3533
32.0,0.52098685,0.9027,1.1914
33.0,0.47362441,0.8674,1.1153
34.0,0.43056764,0.8308,1.0751
35.0,0.39142513,0.7984,1.1451
36.0,0.35584103,0.7984,1.1518
37.0,0.32349184,0.7984,0.9856
38.0,0.29408349,0.7984,0.9566
39.0,0.26734863,0.7984,0.963
40.0,0.24304421,0.7984,0.9862
41.0,0.22094928,0.7984,0.9383
42.0,0.20086298,0.7852,0.9461
43.0,0.18260271,0.7852,0.9005
44.0,0.16600247,0.7852,0.8646
45.0,0.15091133,0.7852,0.8637
46.0,0.13719212,0.7847,0.8734
47.0,0.12472011,0.7846,0.8538
48.0,0.11338192,0.7791,0.8197
49.0,0.10307447,0.7791,0.8417
50.0,0.09370406,0.7791,0.8244
51.0,0.08518551,0.7774,0.8029
52.0,0.07744138,0.7755,0.8256
53.0,0.07040125,0.7755,0.8031
54.0,0.06400114,0.7755,0.8
55.0,0.05818285,0.774,0.7981
56.0,0.0528935,0.774,0.8084
57.0,0.048085,0.774,0.7925
58.0,0.04371364,0.774,0.7975
59.0,0.03973967,0.774,0.7957
60.0,0.03612697,0.774,0.7864
61.0,0.0328427,0.774,0.7874
62.0,0.029857,0.774,0.7859
63.0,0.02714273,0.774,0.7832
64.0,0.02467521,0.774,0.783
65.0,0.02243201,0.774,0.7833
66.0,0.02039273,0.774,0.7848
67.0,0.01853885,0.7738,0.7808
68.0,0.0168535,0.7738,0.7802
69.0,0.01532136,0.7732,0.7783
70.0,0.01392851,0.7732,0.7789
71.0,0.01266228,0.7732,0.7782
72.0,0.01151117,0.7732,0.7779
73.0,0.0104647,0.7723,0.7751
74.0,0.00951336,0.771,0.7739
75.0,0.00864851,0.7703,0.7735
76.0,0.00786228,0.7699,0.772
77.0,0.00714753,0.7676,0.7695
78.0,0.00649775,0.7676,0.7702
79.0,0.00590705,0.7676,0.77
80.0,0.00537004,0.767,0.7686
81.0,0.00488186,0.7669,0.7683
82.0,0.00443805,0.7652,0.7666
83.0,0.00403459,0.7643,0.7654
84.0,0.00366781,0.7619,0.764
85.0,0.00333438,0.7606,0.7622
86.0,0.00303125,0.7606,0.7615
87.0,0.00275568,0.7589,0.76
88.0,0.00250517,0.7582,0.7591
89.0,0.00227742,0.7572,0.7579
90.0,0.00207038,0.7567,0.7575
91.0,0.00188217,0.7563,0.7571
92.0,0.00171106,0.7559,0.7568
93.0,0.00155551,0.7556,0.7564
94.0,0.0014141,0.7544,0.7551
95.0,0.00128555,0.7542,0.7547
96.0,0.00116868,0.7541,0.7545
97.0,0.00106243,0.7533,0.7538
98.0,0.00096585,0.7531,0.754
99.0,0.00087805,0.7528,0.7535
100.0,0.00079822,0.7526,0.7534
101.0,0.00072566,0.7515,0.7521
102.0,0.00065969,0.75,0.7506
103.0,0.00059972,0.75,0.7504
104.0,0.0005452,0.7499,0.7503
105.0,0.00049563,0.7494,0.7499
106.0,0.00045058,0.7491,0.7495
107.0,0.00040961,0.7486,0.749
108.0,0.00037238,0.7479,0.7481
109.0,0.00033852,0.7475,0.7477
110.0,0.00030775,0.7465,0.7468
111.0,0.00027977,0.7459,0.7462
112.0,0.00025434,0.7453,0.7455
113.0,0.00023122,0.7449,0.745
114.0,0.0002102,0.7442,0.7443
115.0,0.00019109,0.7436,0.7437
116.0,0.00017372,0.7429,0.7431
117.0,0.00015792,0.7425,0.7426
118.0,0.00014357,0.7418,0.7419
119.0,0.00013052,0.7413,0.7414
120.0,0.00011865,0.7407,0.7408
121.0,0.00010786,0.7404,0.7405
122.0,9.806e-5,0.7398,0.7399
123.0,8.914e-5,0.7392,0.7394
124.0,8.104e-5,0.7387,0.7389
125.0,7.367e-5,0.7384,0.7385
126.0,6.698e-5,0.7379,0.738
127.0,6.089e-5,0.7373,0.7375
128.0,5.535e-5,0.7369,0.737
129.0,5.032e-5,0.7366,0.7367
130.0,4.574e-5,0.7363,0.7364
131.0,4.159e-5,0.736,0.7361
132.0,3.781e-5,0.7358,0.7358
133.0,3.437e-5,0.7355,0.7356
134.0,3.124e-5,0.7352,0.7353
135.0,2.84e-5,0.735,0.7351
136.0,2.582e-5,0.7348,0.7349
137.0,2.347e-5,0.7347,0.7347
138.0,2.134e-5,0.7346,0.7346
139.0,1.94e-5,0.7345,0.7345
140.0,1.764e-5,0.7343,0.7344
141.0,1.603e-5,0.7343,0.7343
142.0,1.458e-5,0.7342,0.7342
143.0,1.325e-5,0.7342,0.7342
144.0,1.205e-5,0.7341,0.7341
145.0,1.095e-5,0.734,0.734
146.0,9.96e-6,0.734,0.734
147.0,9.05e-6,0.734,0.734
148.0,8.23e-6,0.734,0.734
149.0,7.48e-6,0.734,0.734
150.0,6.8e-6,0.7339,0.734
