omega,S,S_edge,S_cont,Sr,Sr_edge,Sr_cont
-1.522499999999999,0.0,0.0,0.0
-1.5175,0.0020376369951183404,0.0020376369951183404,0.0
-1.5124999999999993,0.007914300212923407,0.007914300212923407,0.0
-1.5075000000000003,0.04437028384297545,0.04437028384297545,0.0
-1.5024999999999995,0.1204272995085883,0.1204272995085883,0.0
-1.4975000000000005,0.2833349007197524,0.2833349007197524,0.0
-1.4924999999999997,0.5509002629555457,0.5509002629555457,0.0
-1.4875000000000007,0.9301222263296349,0.9301222263296349,0.0
-1.4825,1.2595254417216282,1.2595254417216282,0.0
-1.4774999999999991,1.5205644593788523,1.5205644593788523,0.0
-1.4725000000000001,1.6345097107652875,1.6345097107652875,0.0
-1.4674999999999994,1.515219353638035,1.515219353638035,0.0
-1.4625000000000004,1.296365327973949,1.296365327973949,0.0
-1.4574999999999996,1.1002796809074884,1.1002796809074884,0.0
-1.4525000000000006,0.9725434660903235,0.9725434660903235,0.0
-1.4474999999999998,0.8854861637481659,0.8854861637481659,0.0
-1.442499999999999,0.8194253817470105,0.8194253817470105,0.0
-1.4375,0.7766350048495254,0.7766350048495254,0.0
-1.4324999999999992,0.7376688886892552,0.7376688886892552,0.0
-1.4275000000000002,0.7053915374477429,0.7053915374477429,0.0
-1.4224999999999994,0.6760820487860769,0.6760820487860769,0.0
-1.4175000000000004,0.6526935197986315,0.6526935197986315,0.0
-1.4124999999999996,0.6331587825193448,0.6331587825193448,0.0
-1.4075000000000006,0.6115273463030522,0.6115273463030522,0.0
-1.4024999999999999,0.5940302460188839,0.5940302460188839,0.0
-1.397499999999999,0.5830004283713954,0.5830004283713954,0.0
-1.3925,0.5667288633813925,0.5667288633813925,0.0
-1.3874999999999993,0.556865519086182,0.556865519086182,0.0
-1.3825000000000003,0.5423805778382754,0.5423805778382754,0.0
-1.3774999999999995,0.5313064637343713,0.5313064637343713,0.0
-1.3725000000000005,0.5230082608991794,0.5230082608991794,0.0
-1.3674999999999997,0.5141932660724718,0.5141932660724718,0.0
-1.362499999999999,0.5053635057602922,0.5053635057602922,0.0
-1.3575,0.493624944810154,0.493624944810154,0.0
-1.3524999999999991,0.49253229888523553,0.49253229888523553,0.0
-1.3475000000000001,0.4839387863406059,0.4839387863406059,0.0
-1.3424999999999994,0.4722297563614114,0.4722297563614114,0.0
-1.3375000000000004,0.4715800750006491,0.4715800750006491,0.0
-1.3324999999999996,0.46747527003946854,0.46747527003946854,0.0
-1.3275000000000006,0.4538910234053463,0.4538910234053463,0.0
-1.3224999999999998,0.45801059385199866,0.45801059385199866,0.0
-1.317499999999999,0.44520891794788553,0.44520891794788553,0.0
-1.3125,0.4401738874019772,0.4401738874019772,0.0
-1.3074999999999992,0.447349913341307,0.447349913341307,0.0
-1.3025000000000002,0.42616144168917053,0.42616144168917053,0.0
-1.2974999999999994,0.43928795827366496,0.43928795827366496,0.0
-1.2925000000000004,0.41858674764210035,0.41858674764210035,0.0
-1.2874999999999996,0.42560035324123946,0.42560035324123946,0.0
-1.2825000000000006,0.4169182477837788,0.4169182477837788,0.0
-1.2774999999999999,0.41809948662152846,0.41809948662152846,0.0
-1.272499999999999,0.41439334976808856,0.41439334976808856,0.0
-1.2675,0.40429375770532816,0.40429375770532816,0.0
-1.2624999999999993,0.41635715933584766,0.41635715933584766,0.0
-1.2575000000000003,0.3861174450894538,0.3861174450894538,0.0
-1.2524999999999995,0.41756792914454116,0.41756792914454116,0.0
-1.2475000000000005,0.3759883220557495,0.3759883220557495,0.0
-1.2424999999999997,0.4136550754944951,0.4136550754944951,0.0
-1.237499999999999,0.37188351709456907,0.37188351709456907,0.0
-1.2325,0.40833950072462105,0.40833950072462105,0.0
-1.2274999999999991,0.3696686942737883,0.3696686942737883,0.0
-1.2225000000000001,0.4001003598313164,0.4001003598313164,0.0
-1.2174999999999994,0.36791160150263547,0.36791160150263547,0.0
-1.2125000000000004,0.3941498691861521,0.3941498691861521,0.0
-1.2074999999999996,0.3632309426080521,0.3632309426080521,0.0
-1.2025000000000006,0.38980881645742177,0.38980881645742177,0.0
-1.1974999999999998,0.3582402085185593,0.3582402085185593,0.0
-1.192499999999999,0.38645705125530677,0.38645705125530677,0.0
-1.1875,0.3534561912256728,0.3534561912256728,0.0
-1.1824999999999992,0.3827804453728107,0.3827804453728107,0.0
-1.1775000000000002,0.34873123587467375,0.34873123587467375,0.0
-1.1724999999999994,0.37944344565616756,0.37944344565616756,0.0
-1.1675000000000004,0.34666406790861165,0.34666406790861165,0.0
-1.1624999999999996,0.37489567613083097,0.37489567613083097,0.0
-1.1575000000000006,0.3447445547972683,0.3447445547972683,0.0
-1.1524999999999999,0.3709828224807849,0.3709828224807849,0.0
-1.147499999999999,0.34266262134573433,0.34266262134573433,0.0
-1.1425,0.366818955577717,0.366818955577717,0.0
-1.1374999999999993,0.34096459051646905,0.34096459051646905,0.0
-1.1325000000000003,0.3604845623102839,0.3604845623102839,0.0
-1.1274999999999995,0.3414666170225127,0.3414666170225127,0.0
-1.1225000000000005,0.3532642399145384,0.3532642399145384,0.0
-1.1174999999999997,0.3415552099353439,0.3415552099353439,0.0
-1.112499999999999,0.3464130546555898,0.3464130546555898,0.0
-1.1075,0.3444787760587746,0.3444787760587746,0.0
-1.1024999999999991,0.3386021128409695,0.3386021128409695,0.0
-1.0975000000000001,0.3481110854848551,0.3481110854848551,0.0
-1.0924999999999994,0.3335080203531737,0.3335080203531737,0.0
-1.0875000000000004,0.34548282907086186,0.34548282907086186,0.0
-1.0824999999999996,0.33310935224543314,0.33310935224543314,0.0
-1.0775000000000006,0.33843969250077893,0.33843969250077893,0.0
-1.0724999999999998,0.33628393162188563,0.33628393162188563,0.0
-1.067499999999999,0.33160327272730217,0.33160327272730217,0.0
-1.0625,0.33910413934701317,0.33910413934701317,0.0
-1.0574999999999992,0.32225672042360715,0.32225672042360715,0.0
-1.0525000000000002,0.34345995756121545,0.34345995756121545,0.0
-1.0474999999999994,0.3171773934212832,0.3171773934212832,0.0
-1.0425000000000004,0.33798196245115086,0.33798196245115086,0.0
-1.0374999999999996,0.32289163629889767,0.32289163629889767,0.0
-1.0325000000000006,0.32630246344290015,0.32630246344290015,0.0
-1.0274999999999999,0.3317509275820209,0.3317509275820209,0.0
-1.022499999999999,0.3164095881767458,0.3164095881767458,0.0
-1.0175,0.34096459051646905,0.34096459051646905,0.0
-1.0124999999999993,0.30278104508620796,0.30278104508620796,0.0
-1.0075000000000003,0.3404920949813692,0.3404920949813692,0.0
-1.0024999999999995,0.3054093015002012,0.3054093015002012,0.0
-0.9975000000000005,0.3268783173763032,0.3268783173763032,0.0
-0.9924999999999997,0.323895689310985,0.323895689310985,0.0
-0.9874999999999989,0.3087463012168442,0.3087463012168442,0.0
-0.9824999999999999,0.3392074977453163,0.3392074977453163,0.0
-0.9774999999999991,0.29189888229343824,0.29189888229343824,0.0
-0.9725000000000001,0.3381591482768134,0.3381591482768134,0.0
-0.9674999999999994,0.29498486875705954,0.29498486875705954,0.0
-0.9625000000000004,0.3231869460083351,0.3231869460083351,0.0
-0.9574999999999996,0.3227144504732352,0.3227144504732352,0.0
-0.9525000000000006,0.2969634438102904,0.2969634438102904,0.0
-0.9474999999999998,0.3385873473554976,0.3385873473554976,0.0
-0.942499999999999,0.28078047173311865,0.28078047173311865,0.0
-0.9375,0.33415770171393605,0.33415770171393605,0.0
-0.9324999999999992,0.29742117385991834,0.29742117385991834,0.0
-0.9275000000000002,0.3072402216987133,0.3072402216987133,0.0
-0.9224999999999994,0.3283401004380185,0.3283401004380185,0.0
-0.9175000000000004,0.28280334324276507,0.28280334324276507,0.0
-0.9124999999999996,0.33728798463397286,0.33728798463397286,0.0
-0.9075000000000006,0.27667566677193817,0.27667566677193817,0.0
-0.9024999999999999,0.3218875832868104,0.3218875832868104,0.0
-0.8974999999999991,0.31378133176275264,0.31378133176275264,0.0
-0.8925000000000001,0.2811791398408591,0.2811791398408591,0.0
-0.8874999999999993,0.336697365215098,0.336697365215098,0.0
-0.8825000000000003,0.2682298090820274,0.2682298090820274,0.0
-0.8774999999999995,0.32760182616442485,0.32760182616442485,0.0
-0.8725000000000005,0.29972458959353043,0.29972458959353043,0.0
-0.8674999999999997,0.2845752014993897,0.2845752014993897,0.0
-0.8624999999999989,0.3312193701050335,0.3312193701050335,0.0
-0.8574999999999999,0.2638444598968813,0.2638444598968813,0.0
-0.8524999999999991,0.3320757682624021,0.3320757682624021,0.0
-0.8475000000000001,0.2883404002947171,0.2883404002947171,0.0
-0.8424999999999994,0.28726251985527046,0.28726251985527046,0.0
-0.8375000000000004,0.3272179235421562,0.3272179235421562,0.0
-0.8324999999999996,0.2581006860483232,0.2581006860483232,0.0
-0.8275000000000006,0.33464496273450783,0.33464496273450783,0.0
-0.8224999999999998,0.27965829483725635,0.27965829483725635,0.0
-0.817499999999999,0.2861108119884644,0.2861108119884644,0.0
-0.8125,0.3270407377164937,0.3270407377164937,0.0
-0.8074999999999992,0.25231261574334934,0.25231261574334934,0.0
-0.8025000000000002,0.3337737990916673,0.3337737990916673,0.0
-0.7974999999999994,0.27714816230703804,0.27714816230703804,0.0
-0.7925000000000004,0.27999790100310945,0.27999790100310945,0.0
-0.7874999999999996,0.33023008257841807,0.33023008257841807,0.0
-0.7825000000000006,0.24782390815990027,0.24782390815990027,0.0
-0.7774999999999999,0.32960993218859946,0.32960993218859946,0.0
-0.7724999999999991,0.27928915770045953,0.27928915770045953,0.0
-0.7675000000000001,0.2682445745674992,0.2682445745674992,0.0
-0.7624999999999993,0.33442348045242976,0.33442348045242976,0.0
-0.7575000000000003,0.24699704097347536,0.24699704097347536,0.0
-0.7524999999999995,0.32029291085584816,0.32029291085584816,0.0
-0.7475000000000005,0.28639135621243,0.28639135621243,0.0
-0.7424999999999997,0.2548375137590395,0.2548375137590395,0.0
-0.7374999999999989,0.33848398895719456,0.33848398895719456,0.0
-0.7324999999999999,0.2502011513208717,0.2502011513208717,0.0
-0.7274999999999991,0.30155550979204254,0.30155550979204254,0.0
-0.7225000000000001,0.3034454919324422,0.3034454919324422,0.0
-0.7174999999999994,0.23877266556564264,0.23877266556564264,0.0
-0.7125000000000004,0.33982764813513494,0.33982764813513494,0.0
-0.7074999999999996,0.25823357541757,0.25823357541757,0.0
-0.7025000000000006,0.2755682553615477,0.2755682553615477,0.0
-0.6974999999999998,0.32275874692965084,0.32275874692965084,0.0
-0.692499999999999,0.23364904210690304,0.23364904210690304,0.0
-0.6875,0.32407287513664745,0.32407287513664745,0.0
-0.6824999999999992,0.2785508834268659,0.2785508834268659,0.0
-0.6775000000000002,0.24789773558725955,0.24789773558725955,0.0
-0.6724999999999994,0.3356637812320669,0.3356637812320669,0.0
-0.6675000000000004,0.24293653246871058,0.24293653246871058,0.0
-0.6624999999999996,0.2914854487002259,0.2914854487002259,0.0
-0.6575000000000006,0.30558648732586363,0.30558648732586363,0.0
-0.6524999999999999,0.22885025932854464,0.22885025932854464,0.0
-0.6474999999999991,0.3317509275820209,0.3317509275820209,0.0
-0.6425000000000001,0.26535053941501235,0.26535053941501235,0.0
-0.6374999999999993,0.2504226336029497,0.2504226336029497,0.0
-0.6325000000000003,0.3339066884609142,0.3339066884609142,0.0
-0.6274999999999995,0.23034157336120376,0.23034157336120376,0.0
-0.6225000000000005,0.29693391283934667,0.29693391283934667,0.0
-0.6174999999999997,0.29999036833202414,0.29999036833202414,0.0
-0.6124999999999989,0.22784620631645736,0.22784620631645736,0.0
-0.6074999999999999,0.3281629146123559,0.3281629146123559,0.0
-0.6024999999999991,0.2592080974587136,0.2592080974587136,0.0
-0.5975000000000001,0.2483407001514157,0.2483407001514157,0.0
-0.5924999999999994,0.3343348875395985,0.3343348875395985,0.0
-0.5875000000000004,0.2262958303419108,0.2262958303419108,0.0
-0.5824999999999996,0.28741017470998914,0.28741017470998914,0.0
-0.5775000000000006,0.30504016436340436,0.30504016436340436,0.0
-0.5724999999999998,0.22446491014339867,0.22446491014339867,0.0
-0.567499999999999,0.3206177515362294,0.3206177515362294,0.0
-0.5625,0.2624417387770536,0.2624417387770536,0.0
-0.5574999999999992,0.2388317275075302,0.2388317275075302,0.0
-0.5525000000000002,0.335324175066214,0.335324175066214,0.0
-0.5474999999999994,0.23063688307064117,0.23063688307064117,0.0
-0.5425000000000004,0.266768026020312,0.266768026020312,0.0
-0.5374999999999996,0.3168673182263739,0.3168673182263739,0.0
-0.5325000000000006,0.22384475975358004,0.22384475975358004,0.0
-0.5274999999999999,0.29628423147858424,0.29628423147858424,0.0
-0.5224999999999991,0.2838959891676836,0.2838959891676836,0.0
-0.5175000000000001,0.22617770645813579,0.22617770645813579,0.0
-0.5124999999999993,0.32797096330122166,0.32797096330122166,0.0
-0.5075000000000003,0.2444573774723134,0.2444573774723134,0.0
-0.5024999999999995,0.24262645727380128,0.24262645727380128,0.0
-0.4975000000000005,0.3284286933508497,0.3284286933508497,0.0
-0.4924999999999997,0.23082883438177554,0.23082883438177554,0.0
-0.48749999999999893,0.2601826194998571,0.2601826194998571,0.0
-0.48249999999999993,0.31094635855215313,0.31094635855215313,0.0
-0.47749999999999915,0.22334273324753642,0.22334273324753642,0.0
-0.47250000000000014,0.2908800637958791,0.2908800637958791,0.0
-0.46749999999999936,0.28312818392314626,0.28312818392314626,0.0
-0.46250000000000036,0.22493740567849851,0.22493740567849851,0.0
-0.4574999999999996,0.3154055351646586,0.3154055351646586,0.0
-0.45250000000000057,0.2555167260907456,0.2555167260907456,0.0
-0.4474999999999998,0.2294408787474195,0.2294408787474195,0.0
-0.442499999999999,0.3217251629466198,0.3217251629466198,0.0
-0.4375,0.24050022736585172,0.24050022736585172,0.0
-0.4324999999999992,0.23905320978960826,0.23905320978960826,0.0
-0.4275000000000002,0.3175612960435518,0.3175612960435518,0.0
-0.42249999999999943,0.23237921035632209,0.23237921035632209,0.0
-0.4175000000000004,0.25804162410643566,0.25804162410643566,0.0
-0.41249999999999964,0.3034159609614985,0.3034159609614985,0.0
-0.40750000000000064,0.22406624203565806,0.22406624203565806,0.0
-0.40249999999999986,0.2832610732923931,0.2832610732923931,0.0
-0.3974999999999991,0.28370403785654935,0.28370403785654935,0.0
-0.39250000000000007,0.21488211007215374,0.21488211007215374,0.0
-0.3874999999999993,0.3031944786794204,0.3031944786794204,0.0
-0.3825000000000003,0.26966206117279895,0.26966206117279895,0.0
-0.3774999999999995,0.2092712255928423,0.2092712255928423,0.0
-0.3725000000000005,0.31694114565373327,0.31694114565373327,0.0
-0.3674999999999997,0.25780537633888573,0.25780537633888573,0.0
-0.36249999999999893,0.2114269864717357,0.2114269864717357,0.0
-0.35749999999999993,0.32343795926135693,0.32343795926135693,0.0
-0.35249999999999915,0.24484128009458206,0.24484128009458206,0.0
-0.34750000000000014,0.22075877328995877,0.22075877328995877,0.0
-0.34249999999999936,0.3203076763413201,0.3203076763413201,0.0
-0.33750000000000036,0.23034157336120378,0.23034157336120378,0.0
-0.3324999999999996,0.24131232906680466,0.24131232906680466,0.0
-0.32750000000000057,0.3142833582687963,0.3142833582687963,0.0
-0.3224999999999998,0.2094188804475611,0.2094188804475611,0.0
-0.317499999999999,0.26653177825276214,0.26653177825276214,0.0
-0.3125,0.3066938987362541,0.3066938987362541,0.0
-0.3074999999999992,0.19081436875300234,0.19081436875300234,0.0
-0.3025000000000002,0.2899498382111511,0.2899498382111511,0.0
-0.29749999999999943,0.29872053658144315,0.29872053658144315,0.0
-0.2925000000000004,0.1764623168743427,0.1764623168743427,0.0
-0.28749999999999964,0.3102523807349752,0.3102523807349752,0.0
-0.28250000000000064,0.2863027632995988,0.2863027632995988,0.0
-0.27749999999999986,0.16676139291932277,0.16676139291932277,0.0
-0.2724999999999991,0.32943274636293696,0.32943274636293696,0.0
-0.26750000000000007,0.2708728309814925,0.2708728309814925,0.0
-0.2624999999999993,0.165462030197798,0.165462030197798,0.0
-0.2575000000000003,0.3443311212040559,0.3443311212040559,0.0
-0.2524999999999995,0.25036357166106227,0.25036357166106227,0.0
-0.2475000000000005,0.17377499851846198,0.17377499851846198,0.0
-0.24249999999999972,0.3514333197160263,0.3514333197160263,0.0
-0.23749999999999893,0.2313751573442348,0.2313751573442348,0.0
-0.23249999999999993,0.1875954929201342,0.1875954929201342,0.0
-0.22749999999999915,0.35410587258643517,0.35410587258643517,0.0
-0.22250000000000014,0.20934505302020173,0.20934505302020173,0.0
-0.21749999999999936,0.2057422745650649,0.2057422745650649,0.0
-0.21250000000000036,0.3580039607510094,0.3580039607510094,0.0
-0.20749999999999957,0.18442091354368173,0.18442091354368173,0.0
-0.20250000000000057,0.22758042757796368,0.22758042757796368,0.0
-0.1974999999999998,0.3552428149677693,0.3552428149677693,0.0
-0.192499999999999,0.16459086655495755,0.16459086655495755,0.0
-0.1875,0.24702657194441913,0.24702657194441913,0.0
-0.18249999999999922,0.3508869967535671,0.3508869967535671,0.0
-0.1775000000000002,0.14786157151532658,0.14786157151532658,0.0
-0.17249999999999943,0.26594115883388725,0.26594115883388725,0.0
-0.16750000000000043,0.3462358688299274,0.3462358688299274,0.0
-0.16249999999999964,0.13259405953741085,0.13259405953741085,0.0
-0.15750000000000064,0.2829657635829556,0.2829657635829556,0.0
-0.15249999999999986,0.33962093133852866,0.33962093133852866,0.0
-0.14749999999999908,0.1217561932010568,0.1217561932010568,0.0
-0.14250000000000007,0.2980117932787933,0.2980117932787933,0.0
-0.1374999999999993,0.3324006089427833,0.3324006089427833,0.0
-0.13250000000000028,0.11308885322906792,0.11308885322906792,0.0
-0.1274999999999995,0.3111087788923438,0.3111087788923438,0.0
-0.1225000000000005,0.32491450780854414,0.32491450780854414,0.0
-0.11749999999999972,0.10781757491560956,0.10781757491560956,0.0
-0.11249999999999893,0.32122313644057615,0.32122313644057615,0.0
-0.10749999999999993,0.31707403502298004,0.31707403502298004,0.0
-0.10249999999999915,0.10445104422802276,0.10445104422802276,0.0
-0.09750000000000014,0.3293589189355776,0.3293589189355776,0.0
-0.09249999999999936,0.31044433204610955,0.31044433204610955,0.0
-0.08750000000000036,0.10127646485157024,0.10127646485157024,0.0
-0.08249999999999957,0.33494027244394525,0.33494027244394525,0.0
-0.07750000000000057,0.30560125281133554,0.30560125281133554,0.0
-0.07249999999999979,0.09971132339155184,0.09971132339155184,0.0
-0.067499999999999,0.3374799359451072,0.3374799359451072,0.0
-0.0625,0.30313541673753286,0.30313541673753286,0.0
-0.05749999999999922,0.09842672615549897,0.09842672615549897,0.0
-0.05250000000000021,0.33758329434341033,0.33758329434341033,0.0
-0.04749999999999943,0.3027958105716798,0.3027958105716798,0.0
-0.042500000000000426,0.09684681921000865,0.09684681921000865,0.0
-0.037499999999999645,0.3356490157465951,0.3356490157465951,0.0
-0.03250000000000064,0.3050992263052919,0.3050992263052919,0.0
-0.027499999999999858,0.0951487883807434,0.0951487883807434,0.0
-0.022499999999999076,0.32916696762444325,0.32916696762444325,0.0
-0.01750000000000007,0.31311688491651846,0.31311688491651846,0.0
-0.01249999999999929,0.09284537264713134,0.09284537264713134,0.0
-0.007500000000000284,0.3193036233292328,0.3193036233292328,0.0
-0.0024999999999995026,0.3242057645058943,0.3242057645058943,0.0
0.0024999999999995026,0.08986274458181319,0.08986274458181319,0.0
0.007500000000000284,0.3071959252422977,0.3071959252422977,0.0
0.012500000000001066,0.3378343075964321,0.3378343075964321,0.0
0.01750000000000007,0.08720495719687624,0.08720495719687624,0.0
0.022500000000000853,0.29079147088304785,0.29079147088304785,0.0
0.027499999999999858,0.3555381246772068,0.3555381246772068,0.0
0.03250000000000064,0.08445857689910802,0.08445857689910802,0.0
0.037499999999999645,0.27193594593546727,0.27193594593546727,0.0
0.042500000000000426,0.3757373088027277,0.3757373088027277,0.0
0.04749999999999943,0.08400084684947999,0.08400084684947999,0.0
0.05250000000000021,0.24958100093105304,0.24958100093105304,0.0
0.057500000000000995,0.39487337797427385,0.39487337797427385,0.0
0.0625,0.08673246166177631,0.08673246166177631,0.0
0.06750000000000078,0.2268273878188982,0.2268273878188982,0.0
0.07249999999999979,0.409402615678596,0.409402615678596,0.0
0.07750000000000057,0.09414473536865609,0.09414473536865609,0.0
